0.000000000000000000e+00 0.000000000000000000e+00 0.000000000000000000e+00 0.000000000000000000e+00 0.000000000000000000e+00 0.000000000000000000e+00 0.000000000000000000e+00 0.000000000000000000e+00
-1.875000223517444683e+05 -1.875000223517444683e+05 -1.875000223517444683e+05 0.000000000000000000e+00 1.494987487195430731e+04 4.442114167465468927e+04 0.000000000000000000e+00 0.000000000000000000e+00
-1.875000223517444683e+05 -1.875000223517444683e+05 -1.875000223517444683e+05 0.000000000000000000e+00 1.494831024984243595e+04 4.442389093922269240e+04 0.000000000000000000e+00 0.000000000000000000e+00
-1.875000223517444683e+05 -1.875000223517444683e+05 -1.875000223517444683e+05 0.000000000000000000e+00 1.495050072079905658e+04 4.442415916015615221e+04 0.000000000000000000e+00 0.000000000000000000e+00
-1.875000223517444683e+05 -1.875000223517444683e+05 -1.875000223517444683e+05 0.000000000000000000e+00 1.495114892138825962e+04 4.442324273863348208e+04 0.000000000000000000e+00 0.000000000000000000e+00
-1.875000223517444683e+05 -1.875000223517444683e+05 -1.875000223517444683e+05 0.000000000000000000e+00 1.494779615971996463e+04 4.442382388398932380e+04 0.000000000000000000e+00 0.000000000000000000e+00
-1.875000223517444683e+05 -1.875000223517444683e+05 -1.875000223517444683e+05 0.000000000000000000e+00 1.494904785740946136e+04 4.442802601194692397e+04 0.000000000000000000e+00 0.000000000000000000e+00
-1.875000223517444683e+05 -1.875000223517444683e+05 -1.875000223517444683e+05 0.000000000000000000e+00 1.495237826733330257e+04 4.443077527651492710e+04 0.000000000000000000e+00 0.000000000000000000e+00
-1.875000223517444683e+05 -1.875000223517444683e+05 -1.875000223517444683e+05 0.000000000000000000e+00 1.495573102900159756e+04 4.442851775032493606e+04 0.000000000000000000e+00 0.000000000000000000e+00
-1.875000223517444683e+05 -1.875000223517444683e+05 -1.875000223517444683e+05 0.000000000000000000e+00 1.494953959578747890e+04 4.441535257284076215e+04 0.000000000000000000e+00 0.000000000000000000e+00
-1.875000223517444683e+05 -1.875000223517444683e+05 -1.875000223517444683e+05 0.000000000000000000e+00 1.494915961613173749e+04 4.441957705254281609e+04 0.000000000000000000e+00 0.000000000000000000e+00
-1.875000223517444683e+05 -1.875000223517444683e+05 -1.875000223517444683e+05 0.000000000000000000e+00 1.494871258124263113e+04 4.441928647986489523e+04 0.000000000000000000e+00 0.000000000000000000e+00
-1.875000223517444683e+05 -1.875000223517444683e+05 -1.875000223517444683e+05 0.000000000000000000e+00 1.494958429927638826e+04 4.441890650020915928e+04 0.000000000000000000e+00 0.000000000000000000e+00
-1.875000223517444683e+05 -1.875000223517444683e+05 -1.875000223517444683e+05 0.000000000000000000e+00 1.495349585455606757e+04 4.441982292173182213e+04 0.000000000000000000e+00 0.000000000000000000e+00
-1.875000223517444683e+05 -1.875000223517444683e+05 -1.875000223517444683e+05 0.000000000000000000e+00 1.495070188649915326e+04 4.441991232870964450e+04 0.000000000000000000e+00 0.000000000000000000e+00
-1.875000223517444683e+05 -1.875000223517444683e+05 -1.875000223517444683e+05 0.000000000000000000e+00 1.495559691853486584e+04 4.442657314855732693e+04 0.000000000000000000e+00 0.000000000000000000e+00
-1.875000223517444683e+05 -1.875000223517444683e+05 -1.875000223517444683e+05 0.000000000000000000e+00 1.495897203194761823e+04 4.443575971552846022e+04 0.000000000000000000e+00 0.000000000000000000e+00
-1.875000223517444683e+05 -1.875000223517444683e+05 -1.875000223517444683e+05 0.000000000000000000e+00 1.495190888069974062e+04 4.442216985489962826e+04 0.000000000000000000e+00 0.000000000000000000e+00
-1.875000223517444683e+05 -1.875000223517444683e+05 -1.875000223517444683e+05 0.000000000000000000e+00 1.495043366556568981e+04 4.441624664261897124e+04 0.000000000000000000e+00 0.000000000000000000e+00
-1.875000223517444683e+05 -1.875000223517444683e+05 -1.875000223517444683e+05 0.000000000000000000e+00 1.495879321799197533e+04 4.441928647986489523e+04 0.000000000000000000e+00 0.000000000000000000e+00
-1.875000223517444683e+05 -1.875000223517444683e+05 -1.875000223517444683e+05 0.000000000000000000e+00 1.494746088355313441e+04 4.441421263387353974e+04 0.000000000000000000e+00 0.000000000000000000e+00
-1.875000223517444683e+05 -1.875000223517444683e+05 -1.875000223517444683e+05 0.000000000000000000e+00 1.495202063942201676e+04 4.441521846237403224e+04 0.000000000000000000e+00 0.000000000000000000e+00
-1.875000223517444683e+05 -1.875000223517444683e+05 -1.875000223517444683e+05 0.000000000000000000e+00 1.495868145926969919e+04 4.442630492762385984e+04 0.000000000000000000e+00 0.000000000000000000e+00
-1.875000223517444683e+05 -1.875000223517444683e+05 -1.875000223517444683e+05 0.000000000000000000e+00 1.495780974123594206e+04 4.442534380261228216e+04 0.000000000000000000e+00 0.000000000000000000e+00
-1.875000223517444683e+05 -1.875000223517444683e+05 -1.875000223517444683e+05 0.000000000000000000e+00 1.494683503470838514e+04 4.441647016006353078e+04 0.000000000000000000e+00 0.000000000000000000e+00
-1.875000223517444683e+05 -1.875000223517444683e+05 -1.875000223517444683e+05 0.000000000000000000e+00 1.495512753190130570e+04 4.442279570374437753e+04 0.000000000000000000e+00 0.000000000000000000e+00
-1.875000223517444683e+05 -1.875000223517444683e+05 -1.875000223517444683e+05 0.000000000000000000e+00 1.496435880236134653e+04 4.442628257587940607e+04 0.000000000000000000e+00 0.000000000000000000e+00
-1.875000223517444683e+05 -1.875000223517444683e+05 -1.875000223517444683e+05 0.000000000000000000e+00 1.496102839243750532e+04 4.442892008172513306e+04 0.000000000000000000e+00 0.000000000000000000e+00
-1.875000223517444683e+05 -1.875000223517444683e+05 -1.875000223517444683e+05 0.000000000000000000e+00 1.495830147961395778e+04 4.442954593056988233e+04 0.000000000000000000e+00 0.000000000000000000e+00
-1.875000223517444683e+05 -1.875000223517444683e+05 -1.875000223517444683e+05 0.000000000000000000e+00 1.495461344177883257e+04 4.442393564271159994e+04 0.000000000000000000e+00 0.000000000000000000e+00
-1.875000223517444683e+05 -1.875000223517444683e+05 -1.875000223517444683e+05 0.000000000000000000e+00 1.496254831106046731e+04 4.442909889568077779e+04 0.000000000000000000e+00 0.000000000000000000e+00
-1.875000223517444683e+05 -1.875000223517444683e+05 -1.875000223517444683e+05 0.000000000000000000e+00 1.496089428197077359e+04 4.442807071543583152e+04 0.000000000000000000e+00 0.000000000000000000e+00
-1.875000223517444683e+05 -1.875000223517444683e+05 -1.875000223517444683e+05 0.000000000000000000e+00 1.496038019184830227e+04 4.443102114570393314e+04 0.000000000000000000e+00 0.000000000000000000e+00
-1.875000223517444683e+05 -1.875000223517444683e+05 -1.875000223517444683e+05 0.000000000000000000e+00 1.496228009012700386e+04 4.443066351779264369e+04 0.000000000000000000e+00 0.000000000000000000e+00
-1.875000223517444683e+05 -1.875000223517444683e+05 -1.875000223517444683e+05 0.000000000000000000e+00 1.496402352619451631e+04 4.442382388398932380e+04 0.000000000000000000e+00 0.000000000000000000e+00
-1.875000223517444683e+05 -1.875000223517444683e+05 -1.875000223517444683e+05 0.000000000000000000e+00 1.495351820630052316e+04 4.442212515141072072e+04 0.000000000000000000e+00 0.000000000000000000e+00
-1.875000223517444683e+05 -1.875000223517444683e+05 -1.875000223517444683e+05 0.000000000000000000e+00 1.496026843312602614e+04 4.441908531416479673e+04 0.000000000000000000e+00 0.000000000000000000e+00
-1.875000223517444683e+05 -1.875000223517444683e+05 -1.875000223517444683e+05 0.000000000000000000e+00 1.496272712501610840e+04 4.442735545961325988e+04 0.000000000000000000e+00 0.000000000000000000e+00
-1.875000223517444683e+05 -1.875000223517444683e+05 -1.875000223517444683e+05 0.000000000000000000e+00 1.496321886339412595e+04 4.442672961076851061e+04 0.000000000000000000e+00 0.000000000000000000e+00
-1.875000223517444683e+05 -1.875000223517444683e+05 -1.875000223517444683e+05 0.000000000000000000e+00 1.496355413956095617e+04 4.442518734040109848e+04 0.000000000000000000e+00 0.000000000000000000e+00
-1.875000223517444683e+05 -1.875000223517444683e+05 -1.875000223517444683e+05 0.000000000000000000e+00 1.496015667440374818e+04 4.441964410777617741e+04 0.000000000000000000e+00 0.000000000000000000e+00
-1.875000223517444683e+05 -1.875000223517444683e+05 -1.875000223517444683e+05 0.000000000000000000e+00 1.496250360757155613e+04 4.441731952635283233e+04 0.000000000000000000e+00 0.000000000000000000e+00
-1.875000223517444683e+05 -1.875000223517444683e+05 -1.875000223517444683e+05 0.000000000000000000e+00 1.496641516285123544e+04 4.442411445666724467e+04 0.000000000000000000e+00 0.000000000000000000e+00
-1.875000223517444683e+05 -1.875000223517444683e+05 -1.875000223517444683e+05 0.000000000000000000e+00 1.496780097100746389e+04 4.442751192182445084e+04 0.000000000000000000e+00 0.000000000000000000e+00
-1.875000223517444683e+05 -1.875000223517444683e+05 -1.875000223517444683e+05 0.000000000000000000e+00 1.496976792451953042e+04 4.442970239278106601e+04 0.000000000000000000e+00 0.000000000000000000e+00
-1.875000223517444683e+05 -1.875000223517444683e+05 -1.875000223517444683e+05 0.000000000000000000e+00 1.496545403783965594e+04 4.442487441597872385e+04 0.000000000000000000e+00 0.000000000000000000e+00
-1.875000223517444683e+05 -1.875000223517444683e+05 -1.875000223517444683e+05 0.000000000000000000e+00 1.496887385474131952e+04 4.442089580546567595e+04 0.000000000000000000e+00 0.000000000000000000e+00
-1.875000223517444683e+05 -1.875000223517444683e+05 -1.875000223517444683e+05 0.000000000000000000e+00 1.496840446810775757e+04 4.442912124742523156e+04 0.000000000000000000e+00 0.000000000000000000e+00
-1.875000223517444683e+05 -1.875000223517444683e+05 -1.875000223517444683e+05 0.000000000000000000e+00 1.495881556973643092e+04 4.442661785204623447e+04 0.000000000000000000e+00 0.000000000000000000e+00
-1.875000223517444683e+05 -1.875000223517444683e+05 -1.875000223517444683e+05 0.000000000000000000e+00 1.496514111341728312e+04 4.442518734040109848e+04 0.000000000000000000e+00 0.000000000000000000e+00
-1.875000223517444683e+05 -1.875000223517444683e+05 -1.875000223517444683e+05 0.000000000000000000e+00 1.495803325868049433e+04 4.442299686944447603e+04 0.000000000000000000e+00 0.000000000000000000e+00
-1.875000223517444683e+05 -1.875000223517444683e+05 -1.875000223517444683e+05 0.000000000000000000e+00 1.496346473258313381e+04 4.442952357882542856e+04 0.000000000000000000e+00 0.000000000000000000e+00
-1.875000223517444683e+05 -1.875000223517444683e+05 -1.875000223517444683e+05 0.000000000000000000e+00 1.496485054073936408e+04 4.442914359916968533e+04 0.000000000000000000e+00 0.000000000000000000e+00
-1.875000223517444683e+05 -1.875000223517444683e+05 -1.875000223517444683e+05 0.000000000000000000e+00 1.495072423824360885e+04 4.440994345068257826e+04 0.000000000000000000e+00 0.000000000000000000e+00
-1.875000223517444683e+05 -1.875000223517444683e+05 -1.875000223517444683e+05 0.000000000000000000e+00 1.495575338074605315e+04 4.441778891298639064e+04 0.000000000000000000e+00 0.000000000000000000e+00
-1.875000223517444683e+05 -1.875000223517444683e+05 -1.875000223517444683e+05 0.000000000000000000e+00 1.496500700295055140e+04 4.442534380261228216e+04 0.000000000000000000e+00 0.000000000000000000e+00
-1.875000223517444683e+05 -1.875000223517444683e+05 -1.875000223517444683e+05 0.000000000000000000e+00 1.496239184884928000e+04 4.441830300310886378e+04 0.000000000000000000e+00 0.000000000000000000e+00
-1.875000223517444683e+05 -1.875000223517444683e+05 -1.875000223517444683e+05 0.000000000000000000e+00 1.495886027322534028e+04 4.441144101756108284e+04 0.000000000000000000e+00 0.000000000000000000e+00
-1.875000223517444683e+05 -1.875000223517444683e+05 -1.875000223517444683e+05 0.000000000000000000e+00 1.495814501740277046e+04 4.441602312517441896e+04 0.000000000000000000e+00 0.000000000000000000e+00
-1.875000223517444683e+05 -1.875000223517444683e+05 -1.875000223517444683e+05 0.000000000000000000e+00 1.496692925297370675e+04 4.441959940428726986e+04 0.000000000000000000e+00 0.000000000000000000e+00
-1.875000223517444683e+05 -1.875000223517444683e+05 -1.875000223517444683e+05 0.000000000000000000e+00 1.496223538663809268e+04 4.441606782866333378e+04 0.000000000000000000e+00 0.000000000000000000e+00
-1.875000223517444683e+05 -1.875000223517444683e+05 -1.875000223517444683e+05 0.000000000000000000e+00 1.496607988668440521e+04 4.441568784900759056e+04 0.000000000000000000e+00 0.000000000000000000e+00
-1.875000223517444683e+05 -1.875000223517444683e+05 -1.875000223517444683e+05 0.000000000000000000e+00 1.496232479361591322e+04 4.441866063102014596e+04 0.000000000000000000e+00 0.000000000000000000e+00
-1.875000223517444683e+05 -1.875000223517444683e+05 -1.875000223517444683e+05 0.000000000000000000e+00 1.496203422093799418e+04 4.441685013971926674e+04 0.000000000000000000e+00 0.000000000000000000e+00
-1.875000223517444683e+05 -1.875000223517444683e+05 -1.875000223517444683e+05 0.000000000000000000e+00 1.496500700295055140e+04 4.441919707288707286e+04 0.000000000000000000e+00 0.000000000000000000e+00
-1.875000223517444683e+05 -1.875000223517444683e+05 -1.875000223517444683e+05 0.000000000000000000e+00 1.496590107272876230e+04 4.442348860782249540e+04 0.000000000000000000e+00 0.000000000000000000e+00
-1.875000223517444683e+05 -1.875000223517444683e+05 -1.875000223517444683e+05 0.000000000000000000e+00 1.496049195057057841e+04 4.442418151190060598e+04 0.000000000000000000e+00 0.000000000000000000e+00
-1.875000223517444683e+05 -1.875000223517444683e+05 -1.875000223517444683e+05 0.000000000000000000e+00 1.496447056108362267e+04 4.442082875023231463e+04 0.000000000000000000e+00 0.000000000000000000e+00
-1.875000223517444683e+05 -1.875000223517444683e+05 -1.875000223517444683e+05 0.000000000000000000e+00 1.496558814830638767e+04 4.441908531416479673e+04 0.000000000000000000e+00 0.000000000000000000e+00
-1.875000223517444683e+05 -1.875000223517444683e+05 -1.875000223517444683e+05 0.000000000000000000e+00 1.496424704363907040e+04 4.441957705254281609e+04 0.000000000000000000e+00 0.000000000000000000e+00
-1.875000223517444683e+05 -1.875000223517444683e+05 -1.875000223517444683e+05 0.000000000000000000e+00 1.496536463086183539e+04 4.441868298276459973e+04 0.000000000000000000e+00 0.000000000000000000e+00
-1.875000223517444683e+05 -1.875000223517444683e+05 -1.875000223517444683e+05 0.000000000000000000e+00 1.496713041867380525e+04 4.442288511072219990e+04 0.000000000000000000e+00 0.000000000000000000e+00
-1.875000223517444683e+05 -1.875000223517444683e+05 -1.875000223517444683e+05 0.000000000000000000e+00 1.496652692157351157e+04 4.442699783170197770e+04 0.000000000000000000e+00 0.000000000000000000e+00
-1.875000223517444683e+05 -1.875000223517444683e+05 -1.875000223517444683e+05 0.000000000000000000e+00 1.497457354957742245e+04 4.442695312821306288e+04 0.000000000000000000e+00 0.000000000000000000e+00
-1.875000223517444683e+05 -1.875000223517444683e+05 -1.875000223517444683e+05 0.000000000000000000e+00 1.497267365129872087e+04 4.442695312821306288e+04 0.000000000000000000e+00 0.000000000000000000e+00
-1.875000223517444683e+05 -1.875000223517444683e+05 -1.875000223517444683e+05 0.000000000000000000e+00 1.497294187223218432e+04 4.442248277932200290e+04 0.000000000000000000e+00 0.000000000000000000e+00
-1.875000223517444683e+05 -1.875000223517444683e+05 -1.875000223517444683e+05 0.000000000000000000e+00 1.498056381709144443e+04 4.441814654089767282e+04 0.000000000000000000e+00 0.000000000000000000e+00
-1.875000223517444683e+05 -1.875000223517444683e+05 -1.875000223517444683e+05 0.000000000000000000e+00 1.497363477631029855e+04 4.441421263387353974e+04 0.000000000000000000e+00 0.000000000000000000e+00
-1.875000223517444683e+05 -1.875000223517444683e+05 -1.875000223517444683e+05 0.000000000000000000e+00 1.496809154368538293e+04 4.441088222394970217e+04 0.000000000000000000e+00 0.000000000000000000e+00
-1.875000223517444683e+05 -1.875000223517444683e+05 -1.875000223517444683e+05 0.000000000000000000e+00 1.497166782279823201e+04 4.441367619200661284e+04 0.000000000000000000e+00 0.000000000000000000e+00
-1.875000223517444683e+05 -1.875000223517444683e+05 -1.875000223517444683e+05 0.000000000000000000e+00 1.497222661640961451e+04 4.441678308448589814e+04 0.000000000000000000e+00 0.000000000000000000e+00
-1.875000223517444683e+05 -1.875000223517444683e+05 -1.875000223517444683e+05 0.000000000000000000e+00 1.496748804658508925e+04 4.441837005834222509e+04 0.000000000000000000e+00 0.000000000000000000e+00
-1.875000223517444683e+05 -1.875000223517444683e+05 -1.875000223517444683e+05 0.000000000000000000e+00 1.496889620648577329e+04 4.442203574443289835e+04 0.000000000000000000e+00 0.000000000000000000e+00
-1.875000223517444683e+05 -1.875000223517444683e+05 -1.875000223517444683e+05 0.000000000000000000e+00 1.496601283145103844e+04 4.441749834030846978e+04 0.000000000000000000e+00 0.000000000000000000e+00
-1.875000223517444683e+05 -1.875000223517444683e+05 -1.875000223517444683e+05 0.000000000000000000e+00 1.496489524422827344e+04 4.441544197981858451e+04 0.000000000000000000e+00 0.000000000000000000e+00
-1.875000223517444683e+05 -1.875000223517444683e+05 -1.875000223517444683e+05 0.000000000000000000e+00 1.495658039529089911e+04 4.441144101756108284e+04 0.000000000000000000e+00 0.000000000000000000e+00
-1.875000223517444683e+05 -1.875000223517444683e+05 -1.875000223517444683e+05 0.000000000000000000e+00 1.495975434300355300e+04 4.441812418915321905e+04 0.000000000000000000e+00 0.000000000000000000e+00
-1.875000223517444683e+05 -1.875000223517444683e+05 -1.875000223517444683e+05 0.000000000000000000e+00 1.495392053770071834e+04 4.440992109893812449e+04 0.000000000000000000e+00 0.000000000000000000e+00
-1.875000223517444683e+05 -1.875000223517444683e+05 -1.875000223517444683e+05 0.000000000000000000e+00 1.494632094458591382e+04 4.440723888960348268e+04 0.000000000000000000e+00 0.000000000000000000e+00
-1.875000223517444683e+05 -1.875000223517444683e+05 -1.875000223517444683e+05 0.000000000000000000e+00 1.495483695922338666e+04 4.441673838099699060e+04 0.000000000000000000e+00 0.000000000000000000e+00
-1.875000223517444683e+05 -1.875000223517444683e+05 -1.875000223517444683e+05 0.000000000000000000e+00 1.495953082555900073e+04 4.441553138679640688e+04 0.000000000000000000e+00 0.000000000000000000e+00
-1.875000223517444683e+05 -1.875000223517444683e+05 -1.875000223517444683e+05 0.000000000000000000e+00 1.496386706398332899e+04 4.441919707288707286e+04 0.000000000000000000e+00 0.000000000000000000e+00
-1.875000223517444683e+05 -1.875000223517444683e+05 -1.875000223517444683e+05 0.000000000000000000e+00 1.496346473258313381e+04 4.441971116300954600e+04 0.000000000000000000e+00 0.000000000000000000e+00
-1.875000223517444683e+05 -1.875000223517444683e+05 -1.875000223517444683e+05 0.000000000000000000e+00 1.495848029356960069e+04 4.441564314551868301e+04 0.000000000000000000e+00 0.000000000000000000e+00
-1.875000223517444683e+05 -1.875000223517444683e+05 -1.875000223517444683e+05 0.000000000000000000e+00 1.495329468885596907e+04 4.440875880822644831e+04 0.000000000000000000e+00 0.000000000000000000e+00
-1.875000223517444683e+05 -1.875000223517444683e+05 -1.875000223517444683e+05 0.000000000000000000e+00 1.495957552904791009e+04 4.441626899436343228e+04 0.000000000000000000e+00 0.000000000000000000e+00
-1.875000223517444683e+05 -1.875000223517444683e+05 -1.875000223517444683e+05 0.000000000000000000e+00 1.495613336040179274e+04 4.441629134610788606e+04 0.000000000000000000e+00 0.000000000000000000e+00
-1.875000223517444683e+05 -1.875000223517444683e+05 -1.875000223517444683e+05 0.000000000000000000e+00 1.495865910752524360e+04 4.441653721529689210e+04 0.000000000000000000e+00 0.000000000000000000e+00
-1.875000223517444683e+05 -1.875000223517444683e+05 -1.875000223517444683e+05 0.000000000000000000e+00 1.495780974123594206e+04 4.441799007868648914e+04 0.000000000000000000e+00 0.000000000000000000e+00
-1.875000223517444683e+05 -1.875000223517444683e+05 -1.875000223517444683e+05 0.000000000000000000e+00 1.495787679646930701e+04 4.441577725598541292e+04 0.000000000000000000e+00 0.000000000000000000e+00
-1.875000223517444683e+05 -1.875000223517444683e+05 -1.875000223517444683e+05 0.000000000000000000e+00 1.496058135754839896e+04 4.441421263387353974e+04 0.000000000000000000e+00 0.000000000000000000e+00
-1.875000223517444683e+05 -1.875000223517444683e+05 -1.875000223517444683e+05 0.000000000000000000e+00 1.495955317730345632e+04 4.442158870954379381e+04 0.000000000000000000e+00 0.000000000000000000e+00
-1.875000223517444683e+05 -1.875000223517444683e+05 -1.875000223517444683e+05 0.000000000000000000e+00 1.496333062211640208e+04 4.442395799445605371e+04 0.000000000000000000e+00 0.000000000000000000e+00
-1.875000223517444683e+05 -1.875000223517444683e+05 -1.875000223517444683e+05 0.000000000000000000e+00 1.496715277041826084e+04 4.442344390433358058e+04 0.000000000000000000e+00 0.000000000000000000e+00
-1.875000223517444683e+05 -1.875000223517444683e+05 -1.875000223517444683e+05 0.000000000000000000e+00 1.496435880236134653e+04 4.441968881126509223e+04 0.000000000000000000e+00 0.000000000000000000e+00
-1.875000223517444683e+05 -1.875000223517444683e+05 -1.875000223517444683e+05 0.000000000000000000e+00 1.496342002909422445e+04 4.442292981421110744e+04 0.000000000000000000e+00 0.000000000000000000e+00
-1.875000223517444683e+05 -1.875000223517444683e+05 -1.875000223517444683e+05 0.000000000000000000e+00 1.495798855519158496e+04 4.441685013971926674e+04 0.000000000000000000e+00 0.000000000000000000e+00
-1.875000223517444683e+05 -1.875000223517444683e+05 -1.875000223517444683e+05 0.000000000000000000e+00 1.496145307558215609e+04 4.441982292173182213e+04 0.000000000000000000e+00 0.000000000000000000e+00
-1.875000223517444683e+05 -1.875000223517444683e+05 -1.875000223517444683e+05 0.000000000000000000e+00 1.496630340412895748e+04 4.442702018344643147e+04 0.000000000000000000e+00 0.000000000000000000e+00
-1.875000223517444683e+05 -1.875000223517444683e+05 -1.875000223517444683e+05 0.000000000000000000e+00 1.496183305523789750e+04 4.441959940428726986e+04 0.000000000000000000e+00 0.000000000000000000e+00
-1.875000223517444683e+05 -1.875000223517444683e+05 -1.875000223517444683e+05 0.000000000000000000e+00 1.496467172678372117e+04 4.442393564271159994e+04 0.000000000000000000e+00 0.000000000000000000e+00
-1.875000223517444683e+05 -1.875000223517444683e+05 -1.875000223517444683e+05 0.000000000000000000e+00 1.496583401749539735e+04 4.442337684910021926e+04 0.000000000000000000e+00 0.000000000000000000e+00
-1.875000223517444683e+05 -1.875000223517444683e+05 -1.875000223517444683e+05 0.000000000000000000e+00 1.496835976461884638e+04 4.443046235209255246e+04 0.000000000000000000e+00 0.000000000000000000e+00
-1.875000223517444683e+05 -1.875000223517444683e+05 -1.875000223517444683e+05 0.000000000000000000e+00 1.498094379674718402e+04 4.443088703523720324e+04 0.000000000000000000e+00 0.000000000000000000e+00
-1.875000223517444683e+05 -1.875000223517444683e+05 -1.875000223517444683e+05 0.000000000000000000e+00 1.496724217739608139e+04 4.442527674737892085e+04 0.000000000000000000e+00 0.000000000000000000e+00
-1.875000223517444683e+05 -1.875000223517444683e+05 -1.875000223517444683e+05 0.000000000000000000e+00 1.496364354653877672e+04 4.442574613401247916e+04 0.000000000000000000e+00 0.000000000000000000e+00
-1.875000223517444683e+05 -1.875000223517444683e+05 -1.875000223517444683e+05 0.000000000000000000e+00 1.496701865995152730e+04 4.442918830265860015e+04 0.000000000000000000e+00 0.000000000000000000e+00
-1.875000223517444683e+05 -1.875000223517444683e+05 -1.875000223517444683e+05 0.000000000000000000e+00 1.496292829071620690e+04 4.442015819789865054e+04 0.000000000000000000e+00 0.000000000000000000e+00
-1.875000223517444683e+05 -1.875000223517444683e+05 -1.875000223517444683e+05 0.000000000000000000e+00 1.496339767734976886e+04 4.441942059033162514e+04 0.000000000000000000e+00 0.000000000000000000e+00
-1.875000223517444683e+05 -1.875000223517444683e+05 -1.875000223517444683e+05 0.000000000000000000e+00 1.496704101169598289e+04 4.442187928222171467e+04 0.000000000000000000e+00 0.000000000000000000e+00
-1.875000223517444683e+05 -1.875000223517444683e+05 -1.875000223517444683e+05 0.000000000000000000e+00 1.496596812796212907e+04 4.442357801480031776e+04 0.000000000000000000e+00 0.000000000000000000e+00
-1.875000223517444683e+05 -1.875000223517444683e+05 -1.875000223517444683e+05 0.000000000000000000e+00 1.497247248559862237e+04 4.442212515141072072e+04 0.000000000000000000e+00 0.000000000000000000e+00
-1.875000223517444683e+05 -1.875000223517444683e+05 -1.875000223517444683e+05 0.000000000000000000e+00 1.497081845650893047e+04 4.442127578512141918e+04 0.000000000000000000e+00 0.000000000000000000e+00
-1.875000223517444683e+05 -1.875000223517444683e+05 -1.875000223517444683e+05 0.000000000000000000e+00 1.496478348550599731e+04 4.441622429087451746e+04 0.000000000000000000e+00 0.000000000000000000e+00
-1.875000223517444683e+05 -1.875000223517444683e+05 -1.875000223517444683e+05 0.000000000000000000e+00 1.496762215705182098e+04 4.441915236939816532e+04 0.000000000000000000e+00 0.000000000000000000e+00
-1.875000223517444683e+05 -1.875000223517444683e+05 -1.875000223517444683e+05 0.000000000000000000e+00 1.496983497975289720e+04 4.442353331131140294e+04 0.000000000000000000e+00 0.000000000000000000e+00
-1.875000223517444683e+05 -1.875000223517444683e+05 -1.875000223517444683e+05 0.000000000000000000e+00 1.497370183154366532e+04 4.442590259622367012e+04 0.000000000000000000e+00 0.000000000000000000e+00
-1.875000223517444683e+05 -1.875000223517444683e+05 -1.875000223517444683e+05 0.000000000000000000e+00 1.497345596235465746e+04 4.442668490727960307e+04 0.000000000000000000e+00 0.000000000000000000e+00
-1.875000223517444683e+05 -1.875000223517444683e+05 -1.875000223517444683e+05 0.000000000000000000e+00 1.497486412225534150e+04 4.443227284339343169e+04 0.000000000000000000e+00 0.000000000000000000e+00
-1.875000223517444683e+05 -1.875000223517444683e+05 -1.875000223517444683e+05 0.000000000000000000e+00 1.497291952048772873e+04 4.443267517479362141e+04 0.000000000000000000e+00 0.000000000000000000e+00
-1.875000223517444683e+05 -1.875000223517444683e+05 -1.875000223517444683e+05 0.000000000000000000e+00 1.496587872098430671e+04 4.442449443632298062e+04 0.000000000000000000e+00 0.000000000000000000e+00
-1.875000223517444683e+05 -1.875000223517444683e+05 -1.875000223517444683e+05 0.000000000000000000e+00 1.497274070653208764e+04 4.442757897705781215e+04 0.000000000000000000e+00 0.000000000000000000e+00
-1.875000223517444683e+05 -1.875000223517444683e+05 -1.875000223517444683e+05 0.000000000000000000e+00 1.497256189257644473e+04 4.443392687248311995e+04 0.000000000000000000e+00 0.000000000000000000e+00
-1.875000223517444683e+05 -1.875000223517444683e+05 -1.875000223517444683e+05 0.000000000000000000e+00 1.497063964255328756e+04 4.443356924457183777e+04 0.000000000000000000e+00 0.000000000000000000e+00
-1.875000223517444683e+05 -1.875000223517444683e+05 -1.875000223517444683e+05 0.000000000000000000e+00 1.496134131685987995e+04 4.442406975317832985e+04 0.000000000000000000e+00 0.000000000000000000e+00
-1.875000223517444683e+05 -1.875000223517444683e+05 -1.875000223517444683e+05 0.000000000000000000e+00 1.496576696226203057e+04 4.442570143052357162e+04 0.000000000000000000e+00 0.000000000000000000e+00
-1.875000223517444683e+05 -1.875000223517444683e+05 -1.875000223517444683e+05 0.000000000000000000e+00 1.496657162506242275e+04 4.442755662531335838e+04 0.000000000000000000e+00 0.000000000000000000e+00
-1.875000223517444683e+05 -1.875000223517444683e+05 -1.875000223517444683e+05 0.000000000000000000e+00 1.497034906987536851e+04 4.442668490727960307e+04 0.000000000000000000e+00 0.000000000000000000e+00
-1.875000223517444683e+05 -1.875000223517444683e+05 -1.875000223517444683e+05 0.000000000000000000e+00 1.497808277345690476e+04 4.442954593056988233e+04 0.000000000000000000e+00 0.000000000000000000e+00
-1.875000223517444683e+05 -1.875000223517444683e+05 -1.875000223517444683e+05 0.000000000000000000e+00 1.496706336344043848e+04 4.442637198285722843e+04 0.000000000000000000e+00 0.000000000000000000e+00
-1.875000223517444683e+05 -1.875000223517444683e+05 -1.875000223517444683e+05 0.000000000000000000e+00 1.496876209601904156e+04 4.442912124742523156e+04 0.000000000000000000e+00 0.000000000000000000e+00
-1.875000223517444683e+05 -1.875000223517444683e+05 -1.875000223517444683e+05 0.000000000000000000e+00 1.496607988668440521e+04 4.442871891602503456e+04 0.000000000000000000e+00 0.000000000000000000e+00
-1.875000223517444683e+05 -1.875000223517444683e+05 -1.875000223517444683e+05 0.000000000000000000e+00 1.496632575587341307e+04 4.442447208457852685e+04 0.000000000000000000e+00 0.000000000000000000e+00
-1.875000223517444683e+05 -1.875000223517444683e+05 -1.875000223517444683e+05 0.000000000000000000e+00 1.496715277041826084e+04 4.442288511072219990e+04 0.000000000000000000e+00 0.000000000000000000e+00
-1.875000223517444683e+05 -1.875000223517444683e+05 -1.875000223517444683e+05 0.000000000000000000e+00 1.497211485768733837e+04 4.443126701489293919e+04 0.000000000000000000e+00 0.000000000000000000e+00
-1.875000223517444683e+05 -1.875000223517444683e+05 -1.875000223517444683e+05 0.000000000000000000e+00 1.497251718908753355e+04 4.442972474452552706e+04 0.000000000000000000e+00 0.000000000000000000e+00
-1.875000223517444683e+05 -1.875000223517444683e+05 -1.875000223517444683e+05 0.000000000000000000e+00 1.496842681985221316e+04 4.442351095956694917e+04 0.000000000000000000e+00 0.000000000000000000e+00
-1.875000223517444683e+05 -1.875000223517444683e+05 -1.875000223517444683e+05 0.000000000000000000e+00 1.496880679950795275e+04 4.442328744212239690e+04 0.000000000000000000e+00 0.000000000000000000e+00
-1.875000223517444683e+05 -1.875000223517444683e+05 -1.875000223517444683e+05 0.000000000000000000e+00 1.496753275007400043e+04 4.442442738108961930e+04 0.000000000000000000e+00 0.000000000000000000e+00
-1.875000223517444683e+05 -1.875000223517444683e+05 -1.875000223517444683e+05 0.000000000000000000e+00 1.497309833444337164e+04 4.442288511072219990e+04 0.000000000000000000e+00 0.000000000000000000e+00
-1.875000223517444683e+05 -1.875000223517444683e+05 -1.875000223517444683e+05 0.000000000000000000e+00 1.497068434604219874e+04 4.442029230836538773e+04 0.000000000000000000e+00 0.000000000000000000e+00
-1.875000223517444683e+05 -1.875000223517444683e+05 -1.875000223517444683e+05 0.000000000000000000e+00 1.496252595931601172e+04 4.441904061067588918e+04 0.000000000000000000e+00 0.000000000000000000e+00
-1.875000223517444683e+05 -1.875000223517444683e+05 -1.875000223517444683e+05 0.000000000000000000e+00 1.496096133720414036e+04 4.441881709323133691e+04 0.000000000000000000e+00 0.000000000000000000e+00
-1.875000223517444683e+05 -1.875000223517444683e+05 -1.875000223517444683e+05 0.000000000000000000e+00 1.496552109307302271e+04 4.441980056998736836e+04 0.000000000000000000e+00 0.000000000000000000e+00
-1.875000223517444683e+05 -1.875000223517444683e+05 -1.875000223517444683e+05 0.000000000000000000e+00 1.497106432569793833e+04 4.442089580546567595e+04 0.000000000000000000e+00 0.000000000000000000e+00
-1.875000223517444683e+05 -1.875000223517444683e+05 -1.875000223517444683e+05 0.000000000000000000e+00 1.496006726742592764e+04 4.441720776763054891e+04 0.000000000000000000e+00 0.000000000000000000e+00
-1.875000223517444683e+05 -1.875000223517444683e+05 -1.875000223517444683e+05 0.000000000000000000e+00 1.495494871794566279e+04 4.441711836065273383e+04 0.000000000000000000e+00 0.000000000000000000e+00
-1.875000223517444683e+05 -1.875000223517444683e+05 -1.875000223517444683e+05 0.000000000000000000e+00 1.495926260462553728e+04 4.442058288104330131e+04 0.000000000000000000e+00 0.000000000000000000e+00
-1.875000223517444683e+05 -1.875000223517444683e+05 -1.875000223517444683e+05 0.000000000000000000e+00 1.496301769769402745e+04 4.442158870954379381e+04 0.000000000000000000e+00 0.000000000000000000e+00
-1.875000223517444683e+05 -1.875000223517444683e+05 -1.875000223517444683e+05 0.000000000000000000e+00 1.496324121513858154e+04 4.442194633745507599e+04 0.000000000000000000e+00 0.000000000000000000e+00
-1.875000223517444683e+05 -1.875000223517444683e+05 -1.875000223517444683e+05 0.000000000000000000e+00 1.496469407852817676e+04 4.442277335199992376e+04 0.000000000000000000e+00 0.000000000000000000e+00
-1.875000223517444683e+05 -1.875000223517444683e+05 -1.875000223517444683e+05 0.000000000000000000e+00 1.496621399715113694e+04 4.442268394502210140e+04 0.000000000000000000e+00 0.000000000000000000e+00
-1.875000223517444683e+05 -1.875000223517444683e+05 -1.875000223517444683e+05 0.000000000000000000e+00 1.496183305523789750e+04 4.441968881126509223e+04 0.000000000000000000e+00 0.000000000000000000e+00
-1.875000223517444683e+05 -1.875000223517444683e+05 -1.875000223517444683e+05 0.000000000000000000e+00 1.496190011047126245e+04 4.442152165431042522e+04 0.000000000000000000e+00 0.000000000000000000e+00
-1.875000223517444683e+05 -1.875000223517444683e+05 -1.875000223517444683e+05 0.000000000000000000e+00 1.496156483430443404e+04 4.441975586649846082e+04 0.000000000000000000e+00 0.000000000000000000e+00
-1.875000223517444683e+05 -1.875000223517444683e+05 -1.875000223517444683e+05 0.000000000000000000e+00 1.496478348550599731e+04 4.442158870954379381e+04 0.000000000000000000e+00 0.000000000000000000e+00
-1.875000223517444683e+05 -1.875000223517444683e+05 -1.875000223517444683e+05 0.000000000000000000e+00 1.496666103204024330e+04 4.441984527347627591e+04 0.000000000000000000e+00 0.000000000000000000e+00
-1.875000223517444683e+05 -1.875000223517444683e+05 -1.875000223517444683e+05 0.000000000000000000e+00 1.496335297386085767e+04 4.441588901470768906e+04 0.000000000000000000e+00 0.000000000000000000e+00
-1.875000223517444683e+05 -1.875000223517444683e+05 -1.875000223517444683e+05 0.000000000000000000e+00 1.496221303489363709e+04 4.441749834030846978e+04 0.000000000000000000e+00 0.000000000000000000e+00
-1.875000223517444683e+05 -1.875000223517444683e+05 -1.875000223517444683e+05 0.000000000000000000e+00 1.496561050005084326e+04 4.442120872988805058e+04 0.000000000000000000e+00 0.000000000000000000e+00
-1.875000223517444683e+05 -1.875000223517444683e+05 -1.875000223517444683e+05 0.000000000000000000e+00 1.496860563380785425e+04 4.442176752349943854e+04 0.000000000000000000e+00 0.000000000000000000e+00
-1.875000223517444683e+05 -1.875000223517444683e+05 -1.875000223517444683e+05 0.000000000000000000e+00 1.497260659606535410e+04 4.441698425018599664e+04 0.000000000000000000e+00 0.000000000000000000e+00
-1.875000223517444683e+05 -1.875000223517444683e+05 -1.875000223517444683e+05 0.000000000000000000e+00 1.496020137789265937e+04 4.440918349137109908e+04 0.000000000000000000e+00 0.000000000000000000e+00
-1.875000223517444683e+05 -1.875000223517444683e+05 -1.875000223517444683e+05 0.000000000000000000e+00 1.496013432265929441e+04 4.442040406708766386e+04 0.000000000000000000e+00 0.000000000000000000e+00
-1.875000223517444683e+05 -1.875000223517444683e+05 -1.875000223517444683e+05 0.000000000000000000e+00 1.496183305523789750e+04 4.441443615131809202e+04 0.000000000000000000e+00 0.000000000000000000e+00
-1.875000223517444683e+05 -1.875000223517444683e+05 -1.875000223517444683e+05 0.000000000000000000e+00 1.496766686054073216e+04 4.441425733736245456e+04 0.000000000000000000e+00 0.000000000000000000e+00
-1.875000223517444683e+05 -1.875000223517444683e+05 -1.875000223517444683e+05 0.000000000000000000e+00 1.496914207567478297e+04 4.441524081411848601e+04 0.000000000000000000e+00 0.000000000000000000e+00
-1.875000223517444683e+05 -1.875000223517444683e+05 -1.875000223517444683e+05 0.000000000000000000e+00 1.496699630820707353e+04 4.441953234905390127e+04 0.000000000000000000e+00 0.000000000000000000e+00
-1.875000223517444683e+05 -1.875000223517444683e+05 -1.875000223517444683e+05 0.000000000000000000e+00 1.497171252628714319e+04 4.441845946532004746e+04 0.000000000000000000e+00 0.000000000000000000e+00
-1.875000223517444683e+05 -1.875000223517444683e+05 -1.875000223517444683e+05 0.000000000000000000e+00 1.497535586063335722e+04 4.442583554099030152e+04 0.000000000000000000e+00 0.000000000000000000e+00
-1.875000223517444683e+05 -1.875000223517444683e+05 -1.875000223517444683e+05 0.000000000000000000e+00 1.497502058446652882e+04 4.441358678502879047e+04 0.000000000000000000e+00 0.000000000000000000e+00
-1.875000223517444683e+05 -1.875000223517444683e+05 -1.875000223517444683e+05 0.000000000000000000e+00 1.498975038406257590e+04 4.442078404674339981e+04 0.000000000000000000e+00 0.000000000000000000e+00
-1.875000223517444683e+05 -1.875000223517444683e+05 -1.875000223517444683e+05 0.000000000000000000e+00 1.497379123852148587e+04 4.442328744212239690e+04 0.000000000000000000e+00 0.000000000000000000e+00
-1.875000223517444683e+05 -1.875000223517444683e+05 -1.875000223517444683e+05 0.000000000000000000e+00 1.496903031695250502e+04 4.442286275897774613e+04 0.000000000000000000e+00 0.000000000000000000e+00
-1.875000223517444683e+05 -1.875000223517444683e+05 -1.875000223517444683e+05 0.000000000000000000e+00 1.497238307862080183e+04 4.441863827927569218e+04 0.000000000000000000e+00 0.000000000000000000e+00
-1.875000223517444683e+05 -1.875000223517444683e+05 -1.875000223517444683e+05 0.000000000000000000e+00 1.496719747390717021e+04 4.441021167161603807e+04 0.000000000000000000e+00 0.000000000000000000e+00
-1.875000223517444683e+05 -1.875000223517444683e+05 -1.875000223517444683e+05 0.000000000000000000e+00 1.497177958152050815e+04 4.441486083446274279e+04 0.000000000000000000e+00 0.000000000000000000e+00
-1.875000223517444683e+05 -1.875000223517444683e+05 -1.875000223517444683e+05 0.000000000000000000e+00 1.498485535202686333e+04 4.442060523278776236e+04 0.000000000000000000e+00 0.000000000000000000e+00
-1.875000223517444683e+05 -1.875000223517444683e+05 -1.875000223517444683e+05 0.000000000000000000e+00 1.498297780549261734e+04 4.441837005834222509e+04 0.000000000000000000e+00 0.000000000000000000e+00
-1.875000223517444683e+05 -1.875000223517444683e+05 -1.875000223517444683e+05 0.000000000000000000e+00 1.497548997110008895e+04 4.440500371515795268e+04 0.000000000000000000e+00 0.000000000000000000e+00
-1.875000223517444683e+05 -1.875000223517444683e+05 -1.875000223517444683e+05 0.000000000000000000e+00 1.497325479665455896e+04 4.441358678502879047e+04 0.000000000000000000e+00 0.000000000000000000e+00
-1.875000223517444683e+05 -1.875000223517444683e+05 -1.875000223517444683e+05 0.000000000000000000e+00 1.498302250898152852e+04 4.441731952635283233e+04 0.000000000000000000e+00 0.000000000000000000e+00
-1.875000223517444683e+05 -1.875000223517444683e+05 -1.875000223517444683e+05 0.000000000000000000e+00 1.499118089570771554e+04 4.441830300310886378e+04 0.000000000000000000e+00 0.000000000000000000e+00
-1.875000223517444683e+05 -1.875000223517444683e+05 -1.875000223517444683e+05 0.000000000000000000e+00 1.498145788686965716e+04 4.440741770355912740e+04 0.000000000000000000e+00 0.000000000000000000e+00
-1.875000223517444683e+05 -1.875000223517444683e+05 -1.875000223517444683e+05 0.000000000000000000e+00 1.499408662248690416e+04 4.441103868616088585e+04 0.000000000000000000e+00 0.000000000000000000e+00
-1.875000223517444683e+05 -1.875000223517444683e+05 -1.875000223517444683e+05 0.000000000000000000e+00 1.497148900884258910e+04 4.441179864547236502e+04 0.000000000000000000e+00 0.000000000000000000e+00
-1.875000223517444683e+05 -1.875000223517444683e+05 -1.875000223517444683e+05 0.000000000000000000e+00 1.497323244491010337e+04 4.442040406708766386e+04 0.000000000000000000e+00 0.000000000000000000e+00
-1.875000223517444683e+05 -1.875000223517444683e+05 -1.875000223517444683e+05 0.000000000000000000e+00 1.498425185492656965e+04 4.442947887533651374e+04 0.000000000000000000e+00 0.000000000000000000e+00
-1.875000223517444683e+05 -1.875000223517444683e+05 -1.875000223517444683e+05 0.000000000000000000e+00 1.497050553208655583e+04 4.441421263387353974e+04 0.000000000000000000e+00 0.000000000000000000e+00
-1.875000223517444683e+05 -1.875000223517444683e+05 -1.875000223517444683e+05 0.000000000000000000e+00 1.497895449149066189e+04 4.441349737805096811e+04 0.000000000000000000e+00 0.000000000000000000e+00
-1.875000223517444683e+05 -1.875000223517444683e+05 -1.875000223517444683e+05 0.000000000000000000e+00 1.498398363399310620e+04 4.442158870954379381e+04 0.000000000000000000e+00 0.000000000000000000e+00
-1.875000223517444683e+05 -1.875000223517444683e+05 -1.875000223517444683e+05 0.000000000000000000e+00 1.498776107880605377e+04 4.442456149155634921e+04 0.000000000000000000e+00 0.000000000000000000e+00
-1.875000223517444683e+05 -1.875000223517444683e+05 -1.875000223517444683e+05 0.000000000000000000e+00 1.499323725619760262e+04 4.442109697116577445e+04 0.000000000000000000e+00 0.000000000000000000e+00
-1.875000223517444683e+05 -1.875000223517444683e+05 -1.875000223517444683e+05 0.000000000000000000e+00 1.498858809335089973e+04 4.441946529382053996e+04 0.000000000000000000e+00 0.000000000000000000e+00
-1.875000223517444683e+05 -1.875000223517444683e+05 -1.875000223517444683e+05 0.000000000000000000e+00 1.499900400626707233e+04 4.443010472418126301e+04 0.000000000000000000e+00 0.000000000000000000e+00
-1.875000223517444683e+05 -1.875000223517444683e+05 -1.875000223517444683e+05 0.000000000000000000e+00 1.500441312842525622e+04 4.445062362559123721e+04 0.000000000000000000e+00 0.000000000000000000e+00
-1.875000223517444683e+05 -1.875000223517444683e+05 -1.875000223517444683e+05 0.000000000000000000e+00 1.498724698868358064e+04 4.445547395413804043e+04 0.000000000000000000e+00 0.000000000000000000e+00
-1.875000223517444683e+05 -1.875000223517444683e+05 -1.875000223517444683e+05 0.000000000000000000e+00 1.497157841582041146e+04 4.445587628553823015e+04 0.000000000000000000e+00 0.000000000000000000e+00
-1.875000223517444683e+05 -1.875000223517444683e+05 -1.875000223517444683e+05 0.000000000000000000e+00 1.495362996502279930e+04 4.446050309664048109e+04 0.000000000000000000e+00 0.000000000000000000e+00
-1.875000223517444683e+05 -1.875000223517444683e+05 -1.875000223517444683e+05 0.000000000000000000e+00 1.494379519746246478e+04 4.446814739324419497e+04 0.000000000000000000e+00 0.000000000000000000e+00
-1.875000223517444683e+05 -1.875000223517444683e+05 -1.875000223517444683e+05 0.000000000000000000e+00 1.493407218862440641e+04 4.448097729456154048e+04 0.000000000000000000e+00 0.000000000000000000e+00
-1.875000223517444683e+05 -1.875000223517444683e+05 -1.875000223517444683e+05 0.000000000000000000e+00 1.491509555758184979e+04 4.449020856502158858e+04 0.000000000000000000e+00 0.000000000000000000e+00
-1.875000223517444683e+05 -1.875000223517444683e+05 -1.875000223517444683e+05 0.000000000000000000e+00 1.489285557184881873e+04 4.450357490820586099e+04 0.000000000000000000e+00 0.000000000000000000e+00
-1.875000223517444683e+05 -1.875000223517444683e+05 -1.875000223517444683e+05 0.000000000000000000e+00 1.486978857157094171e+04 4.450583243439584476e+04 0.000000000000000000e+00 0.000000000000000000e+00
-1.875000223517444683e+05 -1.875000223517444683e+05 -1.875000223517444683e+05 0.000000000000000000e+00 1.485644458013112489e+04 4.451839411477973044e+04 0.000000000000000000e+00 0.000000000000000000e+00
-1.875000223517444683e+05 -1.875000223517444683e+05 -1.875000223517444683e+05 0.000000000000000000e+00 1.484705684745989493e+04 4.454105878365741228e+04 0.000000000000000000e+00 0.000000000000000000e+00
-1.875000223517444683e+05 -1.875000223517444683e+05 -1.875000223517444683e+05 0.000000000000000000e+00 1.484790621374919647e+04 4.457042897587168409e+04 0.000000000000000000e+00 0.000000000000000000e+00
-1.875000223517444683e+05 -1.875000223517444683e+05 -1.875000223517444683e+05 0.000000000000000000e+00 1.481750784128997839e+04 4.456571275779161078e+04 0.000000000000000000e+00 0.000000000000000000e+00
-1.875000223517444683e+05 -1.875000223517444683e+05 -1.875000223517444683e+05 0.000000000000000000e+00 1.479280916366686506e+04 4.457503343522947398e+04 0.000000000000000000e+00 0.000000000000000000e+00
-1.875000223517444683e+05 -1.875000223517444683e+05 -1.875000223517444683e+05 0.000000000000000000e+00 1.478096273910555283e+04 4.459962035413031117e+04 0.000000000000000000e+00 0.000000000000000000e+00
-1.875000223517444683e+05 -1.875000223517444683e+05 -1.875000223517444683e+05 0.000000000000000000e+00 1.476440009646416911e+04 4.460315192975425452e+04 0.000000000000000000e+00 0.000000000000000000e+00
-1.875000223517444683e+05 -1.875000223517444683e+05 -1.875000223517444683e+05 0.000000000000000000e+00 1.474392589854310791e+04 4.461336667697032681e+04 0.000000000000000000e+00 0.000000000000000000e+00
-1.875000223517444683e+05 -1.875000223517444683e+05 -1.875000223517444683e+05 0.000000000000000000e+00 1.473228063968189417e+04 4.462648715096559317e+04 0.000000000000000000e+00 0.000000000000000000e+00
-1.875000223517444683e+05 -1.875000223517444683e+05 -1.875000223517444683e+05 0.000000000000000000e+00 1.472249057561046902e+04 4.464405562210746575e+04 0.000000000000000000e+00 0.000000000000000000e+00
-1.875000223517444683e+05 -1.875000223517444683e+05 -1.875000223517444683e+05 0.000000000000000000e+00 1.471332636038379314e+04 4.466432865432842664e+04 0.000000000000000000e+00 0.000000000000000000e+00
-1.875000223517444683e+05 -1.875000223517444683e+05 -1.875000223517444683e+05 0.000000000000000000e+00 1.470396097945701877e+04 4.467892434345774382e+04 0.000000000000000000e+00 0.000000000000000000e+00
-1.875000223517444683e+05 -1.875000223517444683e+05 -1.875000223517444683e+05 0.000000000000000000e+00 1.468026813033439430e+04 4.468225475338158139e+04 0.000000000000000000e+00 0.000000000000000000e+00
-1.875000223517444683e+05 -1.875000223517444683e+05 -1.875000223517444683e+05 0.000000000000000000e+00 1.467302616513087378e+04 4.469394471573171177e+04 0.000000000000000000e+00 0.000000000000000000e+00
-1.875000223517444683e+05 -1.875000223517444683e+05 -1.875000223517444683e+05 0.000000000000000000e+00 1.466375019118192176e+04 4.469989027975682257e+04 0.000000000000000000e+00 0.000000000000000000e+00
-1.875000223517444683e+05 -1.875000223517444683e+05 -1.875000223517444683e+05 0.000000000000000000e+00 1.464716519679608427e+04 4.471050735837309185e+04 0.000000000000000000e+00 0.000000000000000000e+00
-1.875000223517444683e+05 -1.875000223517444683e+05 -1.875000223517444683e+05 0.000000000000000000e+00 1.464287366186066538e+04 4.472344901841271349e+04 0.000000000000000000e+00 0.000000000000000000e+00
-1.875000223517444683e+05 -1.875000223517444683e+05 -1.875000223517444683e+05 0.000000000000000000e+00 1.462950731867639115e+04 4.472327020445706876e+04 0.000000000000000000e+00 0.000000000000000000e+00
-1.875000223517444683e+05 -1.875000223517444683e+05 -1.875000223517444683e+05 0.000000000000000000e+00 1.461904670227130737e+04 4.473444607668472599e+04 0.000000000000000000e+00 0.000000000000000000e+00
-1.875000223517444683e+05 -1.875000223517444683e+05 -1.875000223517444683e+05 0.000000000000000000e+00 1.460845197539949186e+04 4.474392321633377287e+04 0.000000000000000000e+00 0.000000000000000000e+00
-1.875000223517444683e+05 -1.875000223517444683e+05 -1.875000223517444683e+05 0.000000000000000000e+00 1.460424984744189533e+04 4.475407090831648384e+04 0.000000000000000000e+00 0.000000000000000000e+00
-1.875000223517444683e+05 -1.875000223517444683e+05 -1.875000223517444683e+05 0.000000000000000000e+00 1.460465217884209051e+04 4.477756259173901344e+04 0.000000000000000000e+00 0.000000000000000000e+00
-1.875000223517444683e+05 -1.875000223517444683e+05 -1.875000223517444683e+05 0.000000000000000000e+00 1.458889419900109897e+04 4.477304753935903864e+04 0.000000000000000000e+00 0.000000000000000000e+00
-1.875000223517444683e+05 -1.875000223517444683e+05 -1.875000223517444683e+05 0.000000000000000000e+00 1.457771832677344537e+04 4.477999893188464193e+04 0.000000000000000000e+00 0.000000000000000000e+00
-1.875000223517444683e+05 -1.875000223517444683e+05 -1.875000223517444683e+05 0.000000000000000000e+00 1.457096809994794239e+04 4.478833613256647368e+04 0.000000000000000000e+00 0.000000000000000000e+00
-1.875000223517444683e+05 -1.875000223517444683e+05 -1.875000223517444683e+05 0.000000000000000000e+00 1.457047636156992485e+04 4.478592214416529896e+04 0.000000000000000000e+00 0.000000000000000000e+00
-1.875000223517444683e+05 -1.875000223517444683e+05 -1.875000223517444683e+05 0.000000000000000000e+00 1.456397200393343155e+04 4.479955670828303846e+04 0.000000000000000000e+00 0.000000000000000000e+00
-1.875000223517444683e+05 -1.875000223517444683e+05 -1.875000223517444683e+05 0.000000000000000000e+00 1.455809349514168571e+04 4.480800566768713907e+04 0.000000000000000000e+00 0.000000000000000000e+00
-1.875000223517444683e+05 -1.875000223517444683e+05 -1.875000223517444683e+05 0.000000000000000000e+00 1.455172324797192232e+04 4.480878797874307929e+04 0.000000000000000000e+00 0.000000000000000000e+00
-1.875000223517444683e+05 -1.875000223517444683e+05 -1.875000223517444683e+05 0.000000000000000000e+00 1.454705173338076384e+04 4.482079086551557702e+04 0.000000000000000000e+00 0.000000000000000000e+00
-1.875000223517444683e+05 -1.875000223517444683e+05 -1.875000223517444683e+05 0.000000000000000000e+00 1.453862512572111336e+04 4.482170728703824716e+04 0.000000000000000000e+00 0.000000000000000000e+00
-1.875000223517444683e+05 -1.875000223517444683e+05 -1.875000223517444683e+05 0.000000000000000000e+00 1.453916156758804027e+04 4.482834575514146854e+04 0.000000000000000000e+00 0.000000000000000000e+00
-1.875000223517444683e+05 -1.875000223517444683e+05 -1.875000223517444683e+05 0.000000000000000000e+00 1.453449005299688179e+04 4.483122913017620158e+04 0.000000000000000000e+00 0.000000000000000000e+00
-1.875000223517444683e+05 -1.875000223517444683e+05 -1.875000223517444683e+05 0.000000000000000000e+00 1.452653283197079145e+04 4.482874808654166554e+04 0.000000000000000000e+00 0.000000000000000000e+00
-1.875000223517444683e+05 -1.875000223517444683e+05 -1.875000223517444683e+05 0.000000000000000000e+00 1.453149491923987080e+04 4.484001336574713787e+04 0.000000000000000000e+00 0.000000000000000000e+00
-1.875000223517444683e+05 -1.875000223517444683e+05 -1.875000223517444683e+05 0.000000000000000000e+00 1.453457945997470233e+04 4.484582481930551876e+04 0.000000000000000000e+00 0.000000000000000000e+00
-1.875000223517444683e+05 -1.875000223517444683e+05 -1.875000223517444683e+05 0.000000000000000000e+00 1.452827626803830572e+04 4.484533308092750667e+04 0.000000000000000000e+00 0.000000000000000000e+00
-1.875000223517444683e+05 -1.875000223517444683e+05 -1.875000223517444683e+05 0.000000000000000000e+00 1.452342593949150432e+04 4.484376845881563349e+04 0.000000000000000000e+00 0.000000000000000000e+00
-1.875000223517444683e+05 -1.875000223517444683e+05 -1.875000223517444683e+05 0.000000000000000000e+00 1.451314413704206345e+04 4.483469365056677634e+04 0.000000000000000000e+00 0.000000000000000000e+00
-1.875000223517444683e+05 -1.875000223517444683e+05 -1.875000223517444683e+05 0.000000000000000000e+00 1.450909847129565242e+04 4.483355371159955394e+04 0.000000000000000000e+00 0.000000000000000000e+00
-1.875000223517444683e+05 -1.875000223517444683e+05 -1.875000223517444683e+05 0.000000000000000000e+00 1.451213830854157459e+04 4.483657119710102415e+04 0.000000000000000000e+00 0.000000000000000000e+00
-1.875000223517444683e+05 -1.875000223517444683e+05 -1.875000223517444683e+05 0.000000000000000000e+00 1.451993906735647579e+04 4.484401432800463954e+04 0.000000000000000000e+00 0.000000000000000000e+00
-1.875000223517444683e+05 -1.875000223517444683e+05 -1.875000223517444683e+05 0.000000000000000000e+00 1.451316648878651904e+04 4.484048275238070346e+04 0.000000000000000000e+00 0.000000000000000000e+00
-1.875000223517444683e+05 -1.875000223517444683e+05 -1.875000223517444683e+05 0.000000000000000000e+00 1.450914317478456360e+04 4.484160033960346482e+04 0.000000000000000000e+00 0.000000000000000000e+00
-1.875000223517444683e+05 -1.875000223517444683e+05 -1.875000223517444683e+05 0.000000000000000000e+00 1.450782442186170010e+04 4.485089866529687424e+04 0.000000000000000000e+00 0.000000000000000000e+00
-1.875000223517444683e+05 -1.875000223517444683e+05 -1.875000223517444683e+05 0.000000000000000000e+00 1.450815969802853033e+04 4.485257504613102356e+04 0.000000000000000000e+00 0.000000000000000000e+00
-1.875000223517444683e+05 -1.875000223517444683e+05 -1.875000223517444683e+05 0.000000000000000000e+00 1.450628215149428434e+04 4.484875289782916661e+04 0.000000000000000000e+00 0.000000000000000000e+00
-1.875000223517444683e+05 -1.875000223517444683e+05 -1.875000223517444683e+05 0.000000000000000000e+00 1.450860673291763487e+04 4.485188214205290569e+04 0.000000000000000000e+00 0.000000000000000000e+00
-1.875000223517444683e+05 -1.875000223517444683e+05 -1.875000223517444683e+05 0.000000000000000000e+00 1.451562518067660130e+04 4.485986171482345526e+04 0.000000000000000000e+00 0.000000000000000000e+00
-1.875000223517444683e+05 -1.875000223517444683e+05 -1.875000223517444683e+05 0.000000000000000000e+00 1.451372528239790154e+04 4.485952643865662685e+04 0.000000000000000000e+00 0.000000000000000000e+00
-1.875000223517444683e+05 -1.875000223517444683e+05 -1.875000223517444683e+05 0.000000000000000000e+00 1.452105665457924079e+04 4.487164108415140072e+04 0.000000000000000000e+00 0.000000000000000000e+00
-1.875000223517444683e+05 -1.875000223517444683e+05 -1.875000223517444683e+05 0.000000000000000000e+00 1.452322477379140582e+04 4.487570910164226370e+04 0.000000000000000000e+00 0.000000000000000000e+00
-1.875000223517444683e+05 -1.875000223517444683e+05 -1.875000223517444683e+05 0.000000000000000000e+00 1.450786912535061128e+04 4.486169455786878825e+04 0.000000000000000000e+00 0.000000000000000000e+00
-1.875000223517444683e+05 -1.875000223517444683e+05 -1.875000223517444683e+05 0.000000000000000000e+00 1.451126659050781745e+04 4.486605314803757210e+04 0.000000000000000000e+00 0.000000000000000000e+00
-1.875000223517444683e+05 -1.875000223517444683e+05 -1.875000223517444683e+05 0.000000000000000000e+00 1.452060961969013624e+04 4.487472562488623225e+04 0.000000000000000000e+00 0.000000000000000000e+00
-1.875000223517444683e+05 -1.875000223517444683e+05 -1.875000223517444683e+05 0.000000000000000000e+00 1.450880789861773337e+04 4.486764012189389905e+04 0.000000000000000000e+00 0.000000000000000000e+00
-1.875000223517444683e+05 -1.875000223517444683e+05 -1.875000223517444683e+05 0.000000000000000000e+00 1.449486041007762105e+04 4.486149339216868975e+04 0.000000000000000000e+00 0.000000000000000000e+00
-1.875000223517444683e+05 -1.875000223517444683e+05 -1.875000223517444683e+05 0.000000000000000000e+00 1.450210237528114158e+04 4.487043408995081700e+04 0.000000000000000000e+00 0.000000000000000000e+00
-1.875000223517444683e+05 -1.875000223517444683e+05 -1.875000223517444683e+05 0.000000000000000000e+00 1.450190120958104308e+04 4.487177519461813063e+04 0.000000000000000000e+00 0.000000000000000000e+00
-1.875000223517444683e+05 -1.875000223517444683e+05 -1.875000223517444683e+05 0.000000000000000000e+00 1.449819082000146227e+04 4.486234275845799129e+04 0.000000000000000000e+00 0.000000000000000000e+00
-1.875000223517444683e+05 -1.875000223517444683e+05 -1.875000223517444683e+05 0.000000000000000000e+00 1.449537450020009419e+04 4.485740302293337299e+04 0.000000000000000000e+00 0.000000000000000000e+00
-1.875000223517444683e+05 -1.875000223517444683e+05 -1.875000223517444683e+05 0.000000000000000000e+00 1.449327343622129411e+04 4.485183743856399815e+04 0.000000000000000000e+00 0.000000000000000000e+00
-1.875000223517444683e+05 -1.875000223517444683e+05 -1.875000223517444683e+05 0.000000000000000000e+00 1.450183415434767812e+04 4.486287920032491820e+04 0.000000000000000000e+00 0.000000000000000000e+00
-1.875000223517444683e+05 -1.875000223517444683e+05 -1.875000223517444683e+05 0.000000000000000000e+00 1.450592452358299852e+04 4.487264691265188594e+04 0.000000000000000000e+00 0.000000000000000000e+00
-1.875000223517444683e+05 -1.875000223517444683e+05 -1.875000223517444683e+05 0.000000000000000000e+00 1.450000131130234149e+04 4.486104635727958521e+04 0.000000000000000000e+00 0.000000000000000000e+00
-1.875000223517444683e+05 -1.875000223517444683e+05 -1.875000223517444683e+05 0.000000000000000000e+00 1.450807029105070797e+04 4.486084519157948671e+04 0.000000000000000000e+00 0.000000000000000000e+00
-1.875000223517444683e+05 -1.875000223517444683e+05 -1.875000223517444683e+05 0.000000000000000000e+00 1.450690800033903179e+04 4.486544965093728388e+04 0.000000000000000000e+00 0.000000000000000000e+00
-1.875000223517444683e+05 -1.875000223517444683e+05 -1.875000223517444683e+05 0.000000000000000000e+00 1.450860673291763487e+04 4.487126110449565749e+04 0.000000000000000000e+00 0.000000000000000000e+00
-1.875000223517444683e+05 -1.875000223517444683e+05 -1.875000223517444683e+05 0.000000000000000000e+00 1.451146775620791414e+04 4.486931650272804836e+04 0.000000000000000000e+00 0.000000000000000000e+00
-1.875000223517444683e+05 -1.875000223517444683e+05 -1.875000223517444683e+05 0.000000000000000000e+00 1.451618397428798380e+04 4.487416683127485157e+04 0.000000000000000000e+00 0.000000000000000000e+00
-1.875000223517444683e+05 -1.875000223517444683e+05 -1.875000223517444683e+05 0.000000000000000000e+00 1.451555812544323635e+04 4.487810073829898465e+04 0.000000000000000000e+00 0.000000000000000000e+00
-1.875000223517444683e+05 -1.875000223517444683e+05 -1.875000223517444683e+05 0.000000000000000000e+00 1.450570100613844625e+04 4.486392973231431824e+04 0.000000000000000000e+00 0.000000000000000000e+00
-1.875000223517444683e+05 -1.875000223517444683e+05 -1.875000223517444683e+05 0.000000000000000000e+00 1.451254063994176977e+04 4.486406384278104815e+04 0.000000000000000000e+00 0.000000000000000000e+00
-1.875000223517444683e+05 -1.875000223517444683e+05 -1.875000223517444683e+05 0.000000000000000000e+00 1.450447166019340330e+04 4.486515907825936301e+04 0.000000000000000000e+00 0.000000000000000000e+00
-1.875000223517444683e+05 -1.875000223517444683e+05 -1.875000223517444683e+05 0.000000000000000000e+00 1.450205767179223039e+04 4.486004052877909271e+04 0.000000000000000000e+00 0.000000000000000000e+00
-1.875000223517444683e+05 -1.875000223517444683e+05 -1.875000223517444683e+05 0.000000000000000000e+00 1.450485163984914470e+04 4.486106870902403898e+04 0.000000000000000000e+00 0.000000000000000000e+00
-1.875000223517444683e+05 -1.875000223517444683e+05 -1.875000223517444683e+05 0.000000000000000000e+00 1.450670683463893511e+04 4.485717950548881345e+04 0.000000000000000000e+00 0.000000000000000000e+00
-1.875000223517444683e+05 -1.875000223517444683e+05 -1.875000223517444683e+05 0.000000000000000000e+00 1.451826268652232829e+04 4.487439034871940385e+04 0.000000000000000000e+00 0.000000000000000000e+00
-1.875000223517444683e+05 -1.875000223517444683e+05 -1.875000223517444683e+05 0.000000000000000000e+00 1.451099836957435400e+04 4.486929415098359459e+04 0.000000000000000000e+00 0.000000000000000000e+00
-1.875000223517444683e+05 -1.875000223517444683e+05 -1.875000223517444683e+05 0.000000000000000000e+00 1.450695270382794297e+04 4.486439911894788384e+04 0.000000000000000000e+00 0.000000000000000000e+00
-1.875000223517444683e+05 -1.875000223517444683e+05 -1.875000223517444683e+05 0.000000000000000000e+00 1.451352411669780304e+04 4.486703662479360355e+04 0.000000000000000000e+00 0.000000000000000000e+00
-1.875000223517444683e+05 -1.875000223517444683e+05 -1.875000223517444683e+05 0.000000000000000000e+00 1.451832974175569507e+04 4.486603079629311833e+04 0.000000000000000000e+00 0.000000000000000000e+00
-1.875000223517444683e+05 -1.875000223517444683e+05 -1.875000223517444683e+05 0.000000000000000000e+00 1.451895559060044252e+04 4.486846713643874682e+04 0.000000000000000000e+00 0.000000000000000000e+00
-1.875000223517444683e+05 -1.875000223517444683e+05 -1.875000223517444683e+05 0.000000000000000000e+00 1.451113248004108573e+04 4.485941467993435072e+04 0.000000000000000000e+00 0.000000000000000000e+00
-1.875000223517444683e+05 -1.875000223517444683e+05 -1.875000223517444683e+05 0.000000000000000000e+00 1.451580399463224421e+04 4.486135928170195984e+04 0.000000000000000000e+00 0.000000000000000000e+00
-1.875000223517444683e+05 -1.875000223517444683e+05 -1.875000223517444683e+05 0.000000000000000000e+00 1.452286714588012183e+04 4.486652253467113769e+04 0.000000000000000000e+00 0.000000000000000000e+00
-1.875000223517444683e+05 -1.875000223517444683e+05 -1.875000223517444683e+05 0.000000000000000000e+00 1.452141428249052660e+04 4.486920474400577223e+04 0.000000000000000000e+00 0.000000000000000000e+00
-1.875000223517444683e+05 -1.875000223517444683e+05 -1.875000223517444683e+05 0.000000000000000000e+00 1.452143663423498219e+04 4.487253515392960981e+04 0.000000000000000000e+00 0.000000000000000000e+00
-1.875000223517444683e+05 -1.875000223517444683e+05 -1.875000223517444683e+05 0.000000000000000000e+00 1.452353769821378046e+04 4.487497149407523830e+04 0.000000000000000000e+00 0.000000000000000000e+00
-1.875000223517444683e+05 -1.875000223517444683e+05 -1.875000223517444683e+05 0.000000000000000000e+00 1.452512467207010741e+04 4.487311629928545153e+04 0.000000000000000000e+00 0.000000000000000000e+00
-1.875000223517444683e+05 -1.875000223517444683e+05 -1.875000223517444683e+05 0.000000000000000000e+00 1.452892446862751058e+04 4.487338452021891135e+04 0.000000000000000000e+00 0.000000000000000000e+00
-1.875000223517444683e+05 -1.875000223517444683e+05 -1.875000223517444683e+05 0.000000000000000000e+00 1.451642984347699348e+04 4.486522613349272433e+04 0.000000000000000000e+00 0.000000000000000000e+00
-1.875000223517444683e+05 -1.875000223517444683e+05 -1.875000223517444683e+05 0.000000000000000000e+00 1.451949203246736943e+04 4.486661194164895278e+04 0.000000000000000000e+00 0.000000000000000000e+00
-1.875000223517444683e+05 -1.875000223517444683e+05 -1.875000223517444683e+05 0.000000000000000000e+00 1.452894682037196435e+04 4.486980824110606773e+04 0.000000000000000000e+00 0.000000000000000000e+00
-1.875000223517444683e+05 -1.875000223517444683e+05 -1.875000223517444683e+05 0.000000000000000000e+00 1.453364068670758024e+04 4.487640200572038157e+04 0.000000000000000000e+00 0.000000000000000000e+00
-1.875000223517444683e+05 -1.875000223517444683e+05 -1.875000223517444683e+05 0.000000000000000000e+00 1.452096724760142024e+04 4.486616490675984824e+04 0.000000000000000000e+00 0.000000000000000000e+00
-1.875000223517444683e+05 -1.875000223517444683e+05 -1.875000223517444683e+05 0.000000000000000000e+00 1.452825391629385012e+04 4.487184224985149922e+04 0.000000000000000000e+00 0.000000000000000000e+00
-1.875000223517444683e+05 -1.875000223517444683e+05 -1.875000223517444683e+05 0.000000000000000000e+00 1.452950561398334685e+04 4.487441270046385762e+04 0.000000000000000000e+00 0.000000000000000000e+00
-1.875000223517444683e+05 -1.875000223517444683e+05 -1.875000223517444683e+05 0.000000000000000000e+00 1.452434236101417264e+04 4.486589668582638842e+04 0.000000000000000000e+00 0.000000000000000000e+00
-1.875000223517444683e+05 -1.875000223517444683e+05 -1.875000223517444683e+05 0.000000000000000000e+00 1.452228600052428374e+04 4.487076936611764540e+04 0.000000000000000000e+00 0.000000000000000000e+00
-1.875000223517444683e+05 -1.875000223517444683e+05 -1.875000223517444683e+05 0.000000000000000000e+00 1.452159309644616951e+04 4.487300454056317540e+04 0.000000000000000000e+00 0.000000000000000000e+00
-1.875000223517444683e+05 -1.875000223517444683e+05 -1.875000223517444683e+05 0.000000000000000000e+00 1.451339000623107131e+04 4.486211924101343902e+04 0.000000000000000000e+00 0.000000000000000000e+00
-1.875000223517444683e+05 -1.875000223517444683e+05 -1.875000223517444683e+05 0.000000000000000000e+00 1.451797211384440925e+04 4.486819891550527973e+04 0.000000000000000000e+00 0.000000000000000000e+00
-1.875000223517444683e+05 -1.875000223517444683e+05 -1.875000223517444683e+05 0.000000000000000000e+00 1.454401189613484166e+04 4.489394812511780037e+04 0.000000000000000000e+00 0.000000000000000000e+00
-1.875000223517444683e+05 -1.875000223517444683e+05 -1.875000223517444683e+05 0.000000000000000000e+00 1.455909932364217457e+04 4.488254873544559086e+04 0.000000000000000000e+00 0.000000000000000000e+00
-1.875000223517444683e+05 -1.875000223517444683e+05 -1.875000223517444683e+05 0.000000000000000000e+00 1.454387778566810994e+04 4.483422426393321803e+04 0.000000000000000000e+00 0.000000000000000000e+00
-1.875000223517444683e+05 -1.875000223517444683e+05 -1.875000223517444683e+05 0.000000000000000000e+00 1.455532187882922699e+04 4.481873450502569176e+04 0.000000000000000000e+00 0.000000000000000000e+00
-1.875000223517444683e+05 -1.875000223517444683e+05 -1.875000223517444683e+05 0.000000000000000000e+00 1.458098168146391981e+04 4.481147018807771383e+04 0.000000000000000000e+00 0.000000000000000000e+00
-1.875000223517444683e+05 -1.875000223517444683e+05 -1.875000223517444683e+05 0.000000000000000000e+00 1.459191168450256555e+04 4.478223410633017193e+04 0.000000000000000000e+00 0.000000000000000000e+00
-1.875000223517444683e+05 -1.875000223517444683e+05 -1.875000223517444683e+05 0.000000000000000000e+00 1.461515749873608365e+04 4.476269868167623645e+04 0.000000000000000000e+00 0.000000000000000000e+00
-1.875000223517444683e+05 -1.875000223517444683e+05 -1.875000223517444683e+05 0.000000000000000000e+00 1.464562292642866851e+04 4.475552377170608088e+04 0.000000000000000000e+00 0.000000000000000000e+00
-1.875000223517444683e+05 -1.875000223517444683e+05 -1.875000223517444683e+05 0.000000000000000000e+00 1.466542657201606926e+04 4.473236736445037968e+04 0.000000000000000000e+00 0.000000000000000000e+00
-1.875000223517444683e+05 -1.875000223517444683e+05 -1.875000223517444683e+05 0.000000000000000000e+00 1.468762185426018914e+04 4.470836159090538422e+04 0.000000000000000000e+00 0.000000000000000000e+00
-1.875000223517444683e+05 -1.875000223517444683e+05 -1.875000223517444683e+05 0.000000000000000000e+00 1.471520390691803914e+04 4.468940731160728319e+04 0.000000000000000000e+00 0.000000000000000000e+00
-1.875000223517444683e+05 -1.875000223517444683e+05 -1.875000223517444683e+05 0.000000000000000000e+00 1.473764505835116688e+04 4.466692145668524608e+04 0.000000000000000000e+00 0.000000000000000000e+00
-1.875000223517444683e+05 -1.875000223517444683e+05 -1.875000223517444683e+05 0.000000000000000000e+00 1.475378301784789801e+04 4.464298273837361194e+04 0.000000000000000000e+00 0.000000000000000000e+00
-1.875000223517444683e+05 -1.875000223517444683e+05 -1.875000223517444683e+05 0.000000000000000000e+00 1.476853516918840069e+04 4.461361254615933285e+04 0.000000000000000000e+00 0.000000000000000000e+00
-1.875000223517444683e+05 -1.875000223517444683e+05 -1.875000223517444683e+05 0.000000000000000000e+00 1.478912112583173985e+04 4.459237838892679429e+04 0.000000000000000000e+00 0.000000000000000000e+00
-1.875000223517444683e+05 -1.875000223517444683e+05 -1.875000223517444683e+05 0.000000000000000000e+00 1.480427560857243770e+04 4.456788087700377946e+04 0.000000000000000000e+00 0.000000000000000000e+00
-1.875000223517444683e+05 -1.875000223517444683e+05 -1.875000223517444683e+05 0.000000000000000000e+00 1.481820074536809443e+04 4.454599851918203058e+04 0.000000000000000000e+00 0.000000000000000000e+00
-1.875000223517444683e+05 -1.875000223517444683e+05 -1.875000223517444683e+05 0.000000000000000000e+00 1.484184889100180771e+04 4.453227454808647599e+04 0.000000000000000000e+00 0.000000000000000000e+00
-1.875000223517444683e+05 -1.875000223517444683e+05 -1.875000223517444683e+05 0.000000000000000000e+00 1.485268948706263291e+04 4.451168859144313319e+04 0.000000000000000000e+00 0.000000000000000000e+00
-1.875000223517444683e+05 -1.875000223517444683e+05 -1.875000223517444683e+05 0.000000000000000000e+00 1.485494701325261849e+04 4.447132134095684887e+04 0.000000000000000000e+00 0.000000000000000000e+00
-1.875000223517444683e+05 -1.875000223517444683e+05 -1.875000223517444683e+05 0.000000000000000000e+00 1.487875162109752091e+04 4.445522808494902711e+04 0.000000000000000000e+00 0.000000000000000000e+00
-1.875000223517444683e+05 -1.875000223517444683e+05 -1.875000223517444683e+05 0.000000000000000000e+00 1.489900230157402802e+04 4.443873249754101562e+04 0.000000000000000000e+00 0.000000000000000000e+00
-1.875000223517444683e+05 -1.875000223517444683e+05 -1.875000223517444683e+05 0.000000000000000000e+00 1.490767477842268818e+04 4.441881709323133691e+04 0.000000000000000000e+00 0.000000000000000000e+00
-1.875000223517444683e+05 -1.875000223517444683e+05 -1.875000223517444683e+05 0.000000000000000000e+00 1.491835891227232423e+04 4.439836524705473130e+04 0.000000000000000000e+00 0.000000000000000000e+00
-1.875000223517444683e+05 -1.875000223517444683e+05 -1.875000223517444683e+05 0.000000000000000000e+00 1.493968247648268698e+04 4.438694350563806802e+04 0.000000000000000000e+00 0.000000000000000000e+00
-1.875000223517444683e+05 -1.875000223517444683e+05 -1.875000223517444683e+05 0.000000000000000000e+00 1.494886904345381845e+04 4.437308542407577625e+04 0.000000000000000000e+00 0.000000000000000000e+00
-1.875000223517444683e+05 -1.875000223517444683e+05 -1.875000223517444683e+05 0.000000000000000000e+00 1.495698272669109610e+04 4.435746155470152007e+04 0.000000000000000000e+00 0.000000000000000000e+00
-1.875000223517444683e+05 -1.875000223517444683e+05 -1.875000223517444683e+05 0.000000000000000000e+00 1.497341125886574628e+04 4.435106895578729745e+04 0.000000000000000000e+00 0.000000000000000000e+00
-1.875000223517444683e+05 -1.875000223517444683e+05 -1.875000223517444683e+05 0.000000000000000000e+00 1.499256670386394399e+04 4.435694746457904694e+04 0.000000000000000000e+00 0.000000000000000000e+00
-1.875000223517444683e+05 -1.875000223517444683e+05 -1.875000223517444683e+05 0.000000000000000000e+00 1.499234318641939171e+04 4.436146251695901447e+04 0.000000000000000000e+00 0.000000000000000000e+00
-1.875000223517444683e+05 -1.875000223517444683e+05 -1.875000223517444683e+05 0.000000000000000000e+00 1.498512357296032678e+04 4.435308061278827518e+04 0.000000000000000000e+00 0.000000000000000000e+00
-1.875000223517444683e+05 -1.875000223517444683e+05 -1.875000223517444683e+05 0.000000000000000000e+00 1.498664349158328696e+04 4.435911558379120834e+04 0.000000000000000000e+00 0.000000000000000000e+00
-1.875000223517444683e+05 -1.875000223517444683e+05 -1.875000223517444683e+05 0.000000000000000000e+00 1.499317020096423767e+04 4.436870448216253862e+04 0.000000000000000000e+00 0.000000000000000000e+00
-1.875000223517444683e+05 -1.875000223517444683e+05 -1.875000223517444683e+05 0.000000000000000000e+00 1.499591946553224079e+04 4.437219135429756716e+04 0.000000000000000000e+00 0.000000000000000000e+00
-1.875000223517444683e+05 -1.875000223517444683e+05 -1.875000223517444683e+05 0.000000000000000000e+00 1.500144034641270082e+04 4.437623702004397637e+04 0.000000000000000000e+00 0.000000000000000000e+00
-1.875000223517444683e+05 -1.875000223517444683e+05 -1.875000223517444683e+05 0.000000000000000000e+00 1.499386310504235189e+04 4.437295131360904634e+04 0.000000000000000000e+00 0.000000000000000000e+00
-1.875000223517444683e+05 -1.875000223517444683e+05 -1.875000223517444683e+05 0.000000000000000000e+00 1.498981743929594086e+04 4.437004558682985225e+04 0.000000000000000000e+00 0.000000000000000000e+00
-1.875000223517444683e+05 -1.875000223517444683e+05 -1.875000223517444683e+05 0.000000000000000000e+00 1.499173968931909803e+04 4.436881624088481476e+04 0.000000000000000000e+00 0.000000000000000000e+00
-1.875000223517444683e+05 -1.875000223517444683e+05 -1.875000223517444683e+05 0.000000000000000000e+00 1.498802929973951723e+04 4.436868213041807758e+04 0.000000000000000000e+00 0.000000000000000000e+00
-1.875000223517444683e+05 -1.875000223517444683e+05 -1.875000223517444683e+05 0.000000000000000000e+00 1.498177081129202998e+04 4.436582110712779831e+04 0.000000000000000000e+00 0.000000000000000000e+00
-1.875000223517444683e+05 -1.875000223517444683e+05 -1.875000223517444683e+05 0.000000000000000000e+00 1.498297780549261734e+04 4.436711750830621168e+04 0.000000000000000000e+00 0.000000000000000000e+00
-1.875000223517444683e+05 -1.875000223517444683e+05 -1.875000223517444683e+05 0.000000000000000000e+00 1.499375134632007575e+04 4.437275014790894784e+04 0.000000000000000000e+00 0.000000000000000000e+00
-1.875000223517444683e+05 -1.875000223517444683e+05 -1.875000223517444683e+05 0.000000000000000000e+00 1.499165028234127567e+04 4.437418065955408383e+04 0.000000000000000000e+00 0.000000000000000000e+00
-1.875000223517444683e+05 -1.875000223517444683e+05 -1.875000223517444683e+05 0.000000000000000000e+00 1.499046563988514572e+04 4.437970154043454386e+04 0.000000000000000000e+00 0.000000000000000000e+00
-1.875000223517444683e+05 -1.875000223517444683e+05 -1.875000223517444683e+05 0.000000000000000000e+00 1.499654531437698824e+04 4.438278608116938267e+04 0.000000000000000000e+00 0.000000000000000000e+00
-1.875000223517444683e+05 -1.875000223517444683e+05 -1.875000223517444683e+05 0.000000000000000000e+00 1.499417602946472653e+04 4.438160143871324544e+04 0.000000000000000000e+00 0.000000000000000000e+00
-1.875000223517444683e+05 -1.875000223517444683e+05 -1.875000223517444683e+05 0.000000000000000000e+00 1.499748408764411215e+04 4.438276372942492162e+04 0.000000000000000000e+00 0.000000000000000000e+00
-1.875000223517444683e+05 -1.875000223517444683e+05 -1.875000223517444683e+05 0.000000000000000000e+00 1.499989807604528505e+04 4.439063154347319505e+04 0.000000000000000000e+00 0.000000000000000000e+00
-1.875000223517444683e+05 -1.875000223517444683e+05 -1.875000223517444683e+05 0.000000000000000000e+00 1.499927222720053578e+04 4.438962571497270255e+04 0.000000000000000000e+00 0.000000000000000000e+00
-1.875000223517444683e+05 -1.875000223517444683e+05 -1.875000223517444683e+05 0.000000000000000000e+00 1.500101566326805005e+04 4.439186088941823255e+04 0.000000000000000000e+00 0.000000000000000000e+00
-1.875000223517444683e+05 -1.875000223517444683e+05 -1.875000223517444683e+05 0.000000000000000000e+00 1.499965220685627719e+04 4.439588420342018799e+04 0.000000000000000000e+00 0.000000000000000000e+00
-1.875000223517444683e+05 -1.875000223517444683e+05 -1.875000223517444683e+05 0.000000000000000000e+00 1.500244617491318968e+04 4.439758293599879107e+04 0.000000000000000000e+00 0.000000000000000000e+00
-1.875000223517444683e+05 -1.875000223517444683e+05 -1.875000223517444683e+05 0.000000000000000000e+00 1.499965220685627719e+04 4.440028749707788666e+04 0.000000000000000000e+00 0.000000000000000000e+00
-1.875000223517444683e+05 -1.875000223517444683e+05 -1.875000223517444683e+05 0.000000000000000000e+00 1.500170856734616427e+04 4.439950518602194643e+04 0.000000000000000000e+00 0.000000000000000000e+00
-1.875000223517444683e+05 -1.875000223517444683e+05 -1.875000223517444683e+05 0.000000000000000000e+00 1.500099331152359446e+04 4.440332733432380337e+04 0.000000000000000000e+00 0.000000000000000000e+00
-1.875000223517444683e+05 -1.875000223517444683e+05 -1.875000223517444683e+05 0.000000000000000000e+00 1.499375134632007575e+04 4.439771704646552826e+04 0.000000000000000000e+00 0.000000000000000000e+00
-1.875000223517444683e+05 -1.875000223517444683e+05 -1.875000223517444683e+05 0.000000000000000000e+00 1.499790877078876292e+04 4.439990751742214343e+04 0.000000000000000000e+00 0.000000000000000000e+00
-1.875000223517444683e+05 -1.875000223517444683e+05 -1.875000223517444683e+05 0.000000000000000000e+00 1.499393016027571866e+04 4.439782880518780439e+04 0.000000000000000000e+00 0.000000000000000000e+00
-1.875000223517444683e+05 -1.875000223517444683e+05 -1.875000223517444683e+05 0.000000000000000000e+00 1.499399721550908362e+04 4.439644299703156867e+04 0.000000000000000000e+00 0.000000000000000000e+00
-1.875000223517444683e+05 -1.875000223517444683e+05 -1.875000223517444683e+05 0.000000000000000000e+00 1.499225377944156935e+04 4.439789586042116571e+04 0.000000000000000000e+00 0.000000000000000000e+00
-1.875000223517444683e+05 -1.875000223517444683e+05 -1.875000223517444683e+05 0.000000000000000000e+00 1.499115854396325994e+04 4.439700179064295662e+04 0.000000000000000000e+00 0.000000000000000000e+00
-1.875000223517444683e+05 -1.875000223517444683e+05 -1.875000223517444683e+05 0.000000000000000000e+00 1.498722463693912505e+04 4.439771704646552826e+04 0.000000000000000000e+00 0.000000000000000000e+00
-1.875000223517444683e+05 -1.875000223517444683e+05 -1.875000223517444683e+05 0.000000000000000000e+00 1.499214202071929321e+04 4.439937107555521652e+04 0.000000000000000000e+00 0.000000000000000000e+00
-1.875000223517444683e+05 -1.875000223517444683e+05 -1.875000223517444683e+05 0.000000000000000000e+00 1.499895930277816115e+04 4.439874522671046725e+04 0.000000000000000000e+00 0.000000000000000000e+00
-1.875000223517444683e+05 -1.875000223517444683e+05 -1.875000223517444683e+05 0.000000000000000000e+00 1.499495834052066130e+04 4.439729236332087748e+04 0.000000000000000000e+00 0.000000000000000000e+00
-1.875000223517444683e+05 -1.875000223517444683e+05 -1.875000223517444683e+05 0.000000000000000000e+00 1.499346077364215671e+04 4.439456545049732813e+04 0.000000000000000000e+00 0.000000000000000000e+00
-1.875000223517444683e+05 -1.875000223517444683e+05 -1.875000223517444683e+05 0.000000000000000000e+00 1.499408662248690416e+04 4.439139150278467423e+04 0.000000000000000000e+00 0.000000000000000000e+00
-1.875000223517444683e+05 -1.875000223517444683e+05 -1.875000223517444683e+05 0.000000000000000000e+00 1.499131500617444726e+04 4.439454309875287436e+04 0.000000000000000000e+00 0.000000000000000000e+00
-1.875000223517444683e+05 -1.875000223517444683e+05 -1.875000223517444683e+05 0.000000000000000000e+00 1.499540537540976766e+04 4.440017573835561052e+04 0.000000000000000000e+00 0.000000000000000000e+00
-1.875000223517444683e+05 -1.875000223517444683e+05 -1.875000223517444683e+05 0.000000000000000000e+00 1.499862402661133274e+04 4.440265678199014656e+04 0.000000000000000000e+00 0.000000000000000000e+00
-1.875000223517444683e+05 -1.875000223517444683e+05 -1.875000223517444683e+05 0.000000000000000000e+00 1.500054627663448809e+04 4.440120391860054951e+04 0.000000000000000000e+00 0.000000000000000000e+00
-1.875000223517444683e+05 -1.875000223517444683e+05 -1.875000223517444683e+05 0.000000000000000000e+00 1.499484658179838516e+04 4.440274618896796892e+04 0.000000000000000000e+00 0.000000000000000000e+00
-1.875000223517444683e+05 -1.875000223517444683e+05 -1.875000223517444683e+05 0.000000000000000000e+00 1.499835580567786928e+04 4.440153919476738520e+04 0.000000000000000000e+00 0.000000000000000000e+00
-1.875000223517444683e+05 -1.875000223517444683e+05 -1.875000223517444683e+05 0.000000000000000000e+00 1.499954044813399923e+04 4.439771704646552826e+04 0.000000000000000000e+00 0.000000000000000000e+00
-1.875000223517444683e+05 -1.875000223517444683e+05 -1.875000223517444683e+05 0.000000000000000000e+00 1.499844521265568983e+04 4.439545952027553722e+04 0.000000000000000000e+00 0.000000000000000000e+00
-1.875000223517444683e+05 -1.875000223517444683e+05 -1.875000223517444683e+05 0.000000000000000000e+00 1.500110507024587059e+04 4.440185211918975983e+04 0.000000000000000000e+00 0.000000000000000000e+00
-1.875000223517444683e+05 -1.875000223517444683e+05 -1.875000223517444683e+05 0.000000000000000000e+00 1.500347435515813413e+04 4.440583072970280045e+04 0.000000000000000000e+00 0.000000000000000000e+00
-1.875000223517444683e+05 -1.875000223517444683e+05 -1.875000223517444683e+05 0.000000000000000000e+00 1.499627709344352479e+04 4.440147213953401661e+04 0.000000000000000000e+00 0.000000000000000000e+00
-1.875000223517444683e+05 -1.875000223517444683e+05 -1.875000223517444683e+05 0.000000000000000000e+00 1.500367552085823263e+04 4.440334968606826442e+04 0.000000000000000000e+00 0.000000000000000000e+00
-1.875000223517444683e+05 -1.875000223517444683e+05 -1.875000223517444683e+05 0.000000000000000000e+00 1.500329554120249122e+04 4.440415434886865114e+04 0.000000000000000000e+00 0.000000000000000000e+00
-1.875000223517444683e+05 -1.875000223517444683e+05 -1.875000223517444683e+05 0.000000000000000000e+00 1.499462306435383289e+04 4.439838759879918507e+04 0.000000000000000000e+00 0.000000000000000000e+00
-1.875000223517444683e+05 -1.875000223517444683e+05 -1.875000223517444683e+05 0.000000000000000000e+00 1.499770760508866442e+04 4.440379672095736896e+04 0.000000000000000000e+00 0.000000000000000000e+00
-1.875000223517444683e+05 -1.875000223517444683e+05 -1.875000223517444683e+05 0.000000000000000000e+00 1.499875813707806446e+04 4.440612130238072132e+04 0.000000000000000000e+00 0.000000000000000000e+00
-1.875000223517444683e+05 -1.875000223517444683e+05 -1.875000223517444683e+05 0.000000000000000000e+00 1.499907106150043910e+04 4.440341674130162573e+04 0.000000000000000000e+00 0.000000000000000000e+00
-1.875000223517444683e+05 -1.875000223517444683e+05 -1.875000223517444683e+05 0.000000000000000000e+00 1.500005453825647237e+04 4.440203093314539728e+04 0.000000000000000000e+00 0.000000000000000000e+00
-1.875000223517444683e+05 -1.875000223517444683e+05 -1.875000223517444683e+05 0.000000000000000000e+00 1.500094860803468509e+04 4.440042160754461656e+04 0.000000000000000000e+00 0.000000000000000000e+00
-1.875000223517444683e+05 -1.875000223517444683e+05 -1.875000223517444683e+05 0.000000000000000000e+00 1.500063568361231046e+04 4.440279089245687646e+04 0.000000000000000000e+00 0.000000000000000000e+00
-1.875000223517444683e+05 -1.875000223517444683e+05 -1.875000223517444683e+05 0.000000000000000000e+00 1.500468134935871967e+04 4.440489195643567655e+04 0.000000000000000000e+00 0.000000000000000000e+00
-1.875000223517444683e+05 -1.875000223517444683e+05 -1.875000223517444683e+05 0.000000000000000000e+00 1.500318378248021509e+04 4.440339438955717196e+04 0.000000000000000000e+00 0.000000000000000000e+00
-1.875000223517444683e+05 -1.875000223517444683e+05 -1.875000223517444683e+05 0.000000000000000000e+00 1.500620126798168167e+04 4.440692596518110804e+04 0.000000000000000000e+00 0.000000000000000000e+00
-1.875000223517444683e+05 -1.875000223517444683e+05 -1.875000223517444683e+05 0.000000000000000000e+00 1.500184267781289600e+04 4.440828942159288272e+04 0.000000000000000000e+00 0.000000000000000000e+00
-1.875000223517444683e+05 -1.875000223517444683e+05 -1.875000223517444683e+05 0.000000000000000000e+00 1.500439077668080245e+04 4.440947406404901267e+04 0.000000000000000000e+00 0.000000000000000000e+00
-1.875000223517444683e+05 -1.875000223517444683e+05 -1.875000223517444683e+05 0.000000000000000000e+00 1.500615656449277049e+04 4.441275977048394998e+04 0.000000000000000000e+00 0.000000000000000000e+00
-1.875000223517444683e+05 -1.875000223517444683e+05 -1.875000223517444683e+05 0.000000000000000000e+00 1.500691652380425148e+04 4.440985404370475590e+04 0.000000000000000000e+00 0.000000000000000000e+00
-1.875000223517444683e+05 -1.875000223517444683e+05 -1.875000223517444683e+05 0.000000000000000000e+00 1.500620126798168167e+04 4.441001050591594685e+04 0.000000000000000000e+00 0.000000000000000000e+00
-1.875000223517444683e+05 -1.875000223517444683e+05 -1.875000223517444683e+05 0.000000000000000000e+00 1.500150740164606759e+04 4.441164218326118134e+04 0.000000000000000000e+00 0.000000000000000000e+00
-1.875000223517444683e+05 -1.875000223517444683e+05 -1.875000223517444683e+05 0.000000000000000000e+00 1.500660359938187685e+04 4.441521846237403224e+04 0.000000000000000000e+00 0.000000000000000000e+00
-1.875000223517444683e+05 -1.875000223517444683e+05 -1.875000223517444683e+05 0.000000000000000000e+00 1.500524014297010399e+04 4.441421263387353974e+04 0.000000000000000000e+00 0.000000000000000000e+00
-1.875000223517444683e+05 -1.875000223517444683e+05 -1.875000223517444683e+05 0.000000000000000000e+00 1.500459194238089913e+04 4.441166453500563512e+04 0.000000000000000000e+00 0.000000000000000000e+00
-1.875000223517444683e+05 -1.875000223517444683e+05 -1.875000223517444683e+05 0.000000000000000000e+00 1.499739468066628979e+04 4.440531663958032732e+04 0.000000000000000000e+00 0.000000000000000000e+00
-1.875000223517444683e+05 -1.875000223517444683e+05 -1.875000223517444683e+05 0.000000000000000000e+00 1.499703705275500579e+04 4.440460138375775568e+04 0.000000000000000000e+00 0.000000000000000000e+00
-1.875000223517444683e+05 -1.875000223517444683e+05 -1.875000223517444683e+05 0.000000000000000000e+00 1.499719351496619311e+04 4.440399788665746746e+04 0.000000000000000000e+00 0.000000000000000000e+00
-1.875000223517444683e+05 -1.875000223517444683e+05 -1.875000223517444683e+05 0.000000000000000000e+00 1.499938398592281192e+04 4.440073453196699120e+04 0.000000000000000000e+00 0.000000000000000000e+00
-1.875000223517444683e+05 -1.875000223517444683e+05 -1.875000223517444683e+05 0.000000000000000000e+00 1.500271439584665313e+04 4.440310381687925110e+04 0.000000000000000000e+00 0.000000000000000000e+00
-1.875000223517444683e+05 -1.875000223517444683e+05 -1.875000223517444683e+05 0.000000000000000000e+00 1.500132858769042468e+04 4.439916990985511802e+04 0.000000000000000000e+00 0.000000000000000000e+00
-1.875000223517444683e+05 -1.875000223517444683e+05 -1.875000223517444683e+05 0.000000000000000000e+00 1.500065803535676605e+04 4.439780645344334334e+04 0.000000000000000000e+00 0.000000000000000000e+00
-1.875000223517444683e+05 -1.875000223517444683e+05 -1.875000223517444683e+05 0.000000000000000000e+00 1.500258028537992141e+04 4.440504841864686750e+04 0.000000000000000000e+00 0.000000000000000000e+00
-1.875000223517444683e+05 -1.875000223517444683e+05 -1.875000223517444683e+05 0.000000000000000000e+00 1.500099331152359446e+04 4.440138273255619424e+04 0.000000000000000000e+00 0.000000000000000000e+00
-1.875000223517444683e+05 -1.875000223517444683e+05 -1.875000223517444683e+05 0.000000000000000000e+00 1.500731885520444666e+04 4.440381907270182273e+04 0.000000000000000000e+00 0.000000000000000000e+00
-1.875000223517444683e+05 -1.875000223517444683e+05 -1.875000223517444683e+05 0.000000000000000000e+00 1.500781059358246421e+04 4.440681420645883190e+04 0.000000000000000000e+00 0.000000000000000000e+00
-1.875000223517444683e+05 -1.875000223517444683e+05 -1.875000223517444683e+05 0.000000000000000000e+00 1.501261621864035442e+04 4.441092692743860971e+04 0.000000000000000000e+00 0.000000000000000000e+00
-1.875000223517444683e+05 -1.875000223517444683e+05 -1.875000223517444683e+05 0.000000000000000000e+00 1.501328677097401305e+04 4.441327386060641584e+04 0.000000000000000000e+00 0.000000000000000000e+00
-1.875000223517444683e+05 -1.875000223517444683e+05 -1.875000223517444683e+05 0.000000000000000000e+00 1.500854820114948780e+04 4.440527193609141978e+04 0.000000000000000000e+00 0.000000000000000000e+00
-1.875000223517444683e+05 -1.875000223517444683e+05 -1.875000223517444683e+05 0.000000000000000000e+00 1.500937521569433557e+04 4.440820001461506035e+04 0.000000000000000000e+00 0.000000000000000000e+00
-1.875000223517444683e+05 -1.875000223517444683e+05 -1.875000223517444683e+05 0.000000000000000000e+00 1.500769883486018625e+04 4.440884821520427067e+04 0.000000000000000000e+00 0.000000000000000000e+00
-1.875000223517444683e+05 -1.875000223517444683e+05 -1.875000223517444683e+05 0.000000000000000000e+00 1.500783294532691798e+04 4.440621070935854368e+04 0.000000000000000000e+00 0.000000000000000000e+00
-1.875000223517444683e+05 -1.875000223517444683e+05 -1.875000223517444683e+05 0.000000000000000000e+00 1.500669300635969739e+04 4.440542839830260345e+04 0.000000000000000000e+00 0.000000000000000000e+00
-1.875000223517444683e+05 -1.875000223517444683e+05 -1.875000223517444683e+05 0.000000000000000000e+00 1.500834703544939111e+04 4.440516017736914364e+04 0.000000000000000000e+00 0.000000000000000000e+00
-1.875000223517444683e+05 -1.875000223517444683e+05 -1.875000223517444683e+05 0.000000000000000000e+00 1.500736355869335785e+04 4.440614365412517509e+04 0.000000000000000000e+00 0.000000000000000000e+00
-1.875000223517444683e+05 -1.875000223517444683e+05 -1.875000223517444683e+05 0.000000000000000000e+00 1.500251323014655645e+04 4.440589778493616905e+04 0.000000000000000000e+00 0.000000000000000000e+00
-1.875000223517444683e+05 -1.875000223517444683e+05 -1.875000223517444683e+05 0.000000000000000000e+00 1.500515073599228162e+04 4.440314852036816592e+04 0.000000000000000000e+00 0.000000000000000000e+00
-1.875000223517444683e+05 -1.875000223517444683e+05 -1.875000223517444683e+05 0.000000000000000000e+00 1.500521779122564840e+04 4.440712713088120654e+04 0.000000000000000000e+00 0.000000000000000000e+00
-1.875000223517444683e+05 -1.875000223517444683e+05 -1.875000223517444683e+05 0.000000000000000000e+00 1.500099331152359446e+04 4.440951876753792749e+04 0.000000000000000000e+00 0.000000000000000000e+00
-1.875000223517444683e+05 -1.875000223517444683e+05 -1.875000223517444683e+05 0.000000000000000000e+00 1.500202149176853891e+04 4.440495901166904514e+04 0.000000000000000000e+00 0.000000000000000000e+00
-1.875000223517444683e+05 -1.875000223517444683e+05 -1.875000223517444683e+05 0.000000000000000000e+00 1.500602245402603876e+04 4.440549545353597205e+04 0.000000000000000000e+00 0.000000000000000000e+00
-1.875000223517444683e+05 -1.875000223517444683e+05 -1.875000223517444683e+05 0.000000000000000000e+00 1.500302732026902777e+04 4.440853529078189604e+04 0.000000000000000000e+00 0.000000000000000000e+00
-1.875000223517444683e+05 -1.875000223517444683e+05 -1.875000223517444683e+05 0.000000000000000000e+00 1.500367552085823263e+04 4.440419905235756596e+04 0.000000000000000000e+00 0.000000000000000000e+00
-1.875000223517444683e+05 -1.875000223517444683e+05 -1.875000223517444683e+05 0.000000000000000000e+00 1.500548601215911185e+04 4.440142743604510906e+04 0.000000000000000000e+00 0.000000000000000000e+00
-1.875000223517444683e+05 -1.875000223517444683e+05 -1.875000223517444683e+05 0.000000000000000000e+00 1.500971049186116397e+04 4.440578602621389291e+04 0.000000000000000000e+00 0.000000000000000000e+00
-1.875000223517444683e+05 -1.875000223517444683e+05 -1.875000223517444683e+05 0.000000000000000000e+00 1.499730527368846924e+04 4.439905815113284189e+04 0.000000000000000000e+00 0.000000000000000000e+00
-1.875000223517444683e+05 -1.875000223517444683e+05 -1.875000223517444683e+05 0.000000000000000000e+00 1.500445783191416740e+04 4.440739535181467363e+04 0.000000000000000000e+00 0.000000000000000000e+00
-1.875000223517444683e+05 -1.875000223517444683e+05 -1.875000223517444683e+05 0.000000000000000000e+00 1.501275032910708615e+04 4.440980934021584835e+04 0.000000000000000000e+00 0.000000000000000000e+00
-1.875000223517444683e+05 -1.875000223517444683e+05 -1.875000223517444683e+05 0.000000000000000000e+00 1.500752002090454516e+04 4.440840118031515885e+04 0.000000000000000000e+00 0.000000000000000000e+00
-1.875000223517444683e+05 -1.875000223517444683e+05 -1.875000223517444683e+05 0.000000000000000000e+00 1.500423431446961513e+04 4.440723888960348268e+04 0.000000000000000000e+00 0.000000000000000000e+00
-1.875000223517444683e+05 -1.875000223517444683e+05 -1.875000223517444683e+05 0.000000000000000000e+00 1.500933051220542438e+04 4.440904938090436190e+04 0.000000000000000000e+00 0.000000000000000000e+00
-1.875000223517444683e+05 -1.875000223517444683e+05 -1.875000223517444683e+05 0.000000000000000000e+00 1.501771241637616367e+04 4.441973351475399977e+04 0.000000000000000000e+00 0.000000000000000000e+00
-1.875000223517444683e+05 -1.875000223517444683e+05 -1.875000223517444683e+05 0.000000000000000000e+00 1.500810116626038325e+04 4.441117279662762303e+04 0.000000000000000000e+00 0.000000000000000000e+00
-1.875000223517444683e+05 -1.875000223517444683e+05 -1.875000223517444683e+05 0.000000000000000000e+00 1.499992042778974064e+04 4.440104745638936583e+04 0.000000000000000000e+00 0.000000000000000000e+00
-1.875000223517444683e+05 -1.875000223517444683e+05 -1.875000223517444683e+05 0.000000000000000000e+00 1.500347435515813413e+04 4.440571897098052432e+04 0.000000000000000000e+00 0.000000000000000000e+00
-1.875000223517444683e+05 -1.875000223517444683e+05 -1.875000223517444683e+05 0.000000000000000000e+00 1.500199914002408332e+04 4.440410964537974360e+04 0.000000000000000000e+00 0.000000000000000000e+00
-1.875000223517444683e+05 -1.875000223517444683e+05 -1.875000223517444683e+05 0.000000000000000000e+00 1.500378727958050877e+04 4.440542839830260345e+04 0.000000000000000000e+00 0.000000000000000000e+00
-1.875000223517444683e+05 -1.875000223517444683e+05 -1.875000223517444683e+05 0.000000000000000000e+00 1.500351905864704531e+04 4.440017573835561052e+04 0.000000000000000000e+00 0.000000000000000000e+00
-1.875000223517444683e+05 -1.875000223517444683e+05 -1.875000223517444683e+05 0.000000000000000000e+00 1.500698357903761644e+04 4.440232150582331815e+04 0.000000000000000000e+00 0.000000000000000000e+00
-1.875000223517444683e+05 -1.875000223517444683e+05 -1.875000223517444683e+05 0.000000000000000000e+00 1.500948697441661170e+04 4.441007756114930817e+04 0.000000000000000000e+00 0.000000000000000000e+00
-1.875000223517444683e+05 -1.875000223517444683e+05 -1.875000223517444683e+05 0.000000000000000000e+00 1.500758707613791012e+04 4.441401146817344124e+04 0.000000000000000000e+00 0.000000000000000000e+00
-1.875000223517444683e+05 -1.875000223517444683e+05 -1.875000223517444683e+05 0.000000000000000000e+00 1.500579893658148649e+04 4.440685890994774672e+04 0.000000000000000000e+00 0.000000000000000000e+00
-1.875000223517444683e+05 -1.875000223517444683e+05 -1.875000223517444683e+05 0.000000000000000000e+00 1.499670177658817556e+04 4.439545952027553722e+04 0.000000000000000000e+00 0.000000000000000000e+00
-1.875000223517444683e+05 -1.875000223517444683e+05 -1.875000223517444683e+05 0.000000000000000000e+00 1.499954044813399923e+04 4.439865581973264489e+04 0.000000000000000000e+00 0.000000000000000000e+00
-1.875000223517444683e+05 -1.875000223517444683e+05 -1.875000223517444683e+05 0.000000000000000000e+00 1.500769883486018625e+04 4.440205328488985106e+04 0.000000000000000000e+00 0.000000000000000000e+00
-1.875000223517444683e+05 -1.875000223517444683e+05 -1.875000223517444683e+05 0.000000000000000000e+00 1.500486016331436258e+04 4.439836524705473130e+04 0.000000000000000000e+00 0.000000000000000000e+00
-1.875000223517444683e+05 -1.875000223517444683e+05 -1.875000223517444683e+05 0.000000000000000000e+00 1.500678241333751976e+04 4.440149449127847038e+04 0.000000000000000000e+00 0.000000000000000000e+00
-1.875000223517444683e+05 -1.875000223517444683e+05 -1.875000223517444683e+05 0.000000000000000000e+00 1.500968814011671020e+04 4.440355085176836292e+04 0.000000000000000000e+00 0.000000000000000000e+00
-1.875000223517444683e+05 -1.875000223517444683e+05 -1.875000223517444683e+05 0.000000000000000000e+00 1.500568717785920853e+04 4.439818643309908657e+04 0.000000000000000000e+00 0.000000000000000000e+00
-1.875000223517444683e+05 -1.875000223517444683e+05 -1.875000223517444683e+05 0.000000000000000000e+00 1.500459194238089913e+04 4.440091334592263593e+04 0.000000000000000000e+00 0.000000000000000000e+00
-1.875000223517444683e+05 -1.875000223517444683e+05 -1.875000223517444683e+05 0.000000000000000000e+00 1.501400202679658287e+04 4.440815531112615281e+04 0.000000000000000000e+00 0.000000000000000000e+00
-1.875000223517444683e+05 -1.875000223517444683e+05 -1.875000223517444683e+05 0.000000000000000000e+00 1.501120805873967038e+04 4.440460138375775568e+04 0.000000000000000000e+00 0.000000000000000000e+00
-1.875000223517444683e+05 -1.875000223517444683e+05 -1.875000223517444683e+05 0.000000000000000000e+00 1.501143157618422265e+04 4.440560721225824818e+04 0.000000000000000000e+00 0.000000000000000000e+00
-1.875000223517444683e+05 -1.875000223517444683e+05 -1.875000223517444683e+05 0.000000000000000000e+00 1.501328677097401305e+04 4.441108338964980067e+04 0.000000000000000000e+00 0.000000000000000000e+00
-1.875000223517444683e+05 -1.875000223517444683e+05 -1.875000223517444683e+05 0.000000000000000000e+00 1.500591069530376262e+04 4.441226803210593062e+04 0.000000000000000000e+00 0.000000000000000000e+00
-1.875000223517444683e+05 -1.875000223517444683e+05 -1.875000223517444683e+05 0.000000000000000000e+00 1.500577658483703090e+04 4.440493665992459137e+04 0.000000000000000000e+00 0.000000000000000000e+00
-1.875000223517444683e+05 -1.875000223517444683e+05 -1.875000223517444683e+05 0.000000000000000000e+00 1.501058220989492111e+04 4.441043518906059762e+04 0.000000000000000000e+00 0.000000000000000000e+00
-1.875000223517444683e+05 -1.875000223517444683e+05 -1.875000223517444683e+05 0.000000000000000000e+00 1.500988930581680688e+04 4.440853529078189604e+04 0.000000000000000000e+00 0.000000000000000000e+00
-1.875000223517444683e+05 -1.875000223517444683e+05 -1.875000223517444683e+05 0.000000000000000000e+00 1.500526249471455776e+04 4.440784238670377817e+04 0.000000000000000000e+00 0.000000000000000000e+00
-1.875000223517444683e+05 -1.875000223517444683e+05 -1.875000223517444683e+05 0.000000000000000000e+00 1.500722944822662612e+04 4.440267913373460033e+04 0.000000000000000000e+00 0.000000000000000000e+00
-1.875000223517444683e+05 -1.875000223517444683e+05 -1.875000223517444683e+05 0.000000000000000000e+00 1.501558900065290982e+04 4.440147213953401661e+04 0.000000000000000000e+00 0.000000000000000000e+00
-1.875000223517444683e+05 -1.875000223517444683e+05 -1.875000223517444683e+05 0.000000000000000000e+00 1.499983102081191828e+04 4.439892404066611198e+04 0.000000000000000000e+00 0.000000000000000000e+00
-1.875000223517444683e+05 -1.875000223517444683e+05 -1.875000223517444683e+05 0.000000000000000000e+00 1.500213325049081504e+04 4.440171800872302265e+04 0.000000000000000000e+00 0.000000000000000000e+00
-1.875000223517444683e+05 -1.875000223517444683e+05 -1.875000223517444683e+05 0.000000000000000000e+00 1.499819934346668197e+04 4.439709119762077898e+04 0.000000000000000000e+00 0.000000000000000000e+00
-1.875000223517444683e+05 -1.875000223517444683e+05 -1.875000223517444683e+05 0.000000000000000000e+00 1.500262498886883259e+04 4.439863346798819111e+04 0.000000000000000000e+00 0.000000000000000000e+00
-1.875000223517444683e+05 -1.875000223517444683e+05 -1.875000223517444683e+05 0.000000000000000000e+00 1.500184267781289600e+04 4.439735941855423880e+04 0.000000000000000000e+00 0.000000000000000000e+00
-1.875000223517444683e+05 -1.875000223517444683e+05 -1.875000223517444683e+05 0.000000000000000000e+00 1.500170856734616427e+04 4.440042160754461656e+04 0.000000000000000000e+00 0.000000000000000000e+00
-1.875000223517444683e+05 -1.875000223517444683e+05 -1.875000223517444683e+05 0.000000000000000000e+00 1.500061333186785487e+04 4.439452074700841331e+04 0.000000000000000000e+00 0.000000000000000000e+00
-1.875000223517444683e+05 -1.875000223517444683e+05 -1.875000223517444683e+05 0.000000000000000000e+00 1.500472605284763085e+04 4.439512424410870881e+04 0.000000000000000000e+00 0.000000000000000000e+00
-1.875000223517444683e+05 -1.875000223517444683e+05 -1.875000223517444683e+05 0.000000000000000000e+00 1.500434607319189126e+04 4.439530305806435354e+04 0.000000000000000000e+00 0.000000000000000000e+00
-1.875000223517444683e+05 -1.875000223517444683e+05 -1.875000223517444683e+05 0.000000000000000000e+00 1.500928580871651320e+04 4.440471314248003910e+04 0.000000000000000000e+00 0.000000000000000000e+00
-1.875000223517444683e+05 -1.875000223517444683e+05 -1.875000223517444683e+05 0.000000000000000000e+00 1.501491844831925118e+04 4.440898232567100058e+04 0.000000000000000000e+00 0.000000000000000000e+00
-1.875000223517444683e+05 -1.875000223517444683e+05 -1.875000223517444683e+05 0.000000000000000000e+00 1.500454723889198794e+04 4.440571897098052432e+04 0.000000000000000000e+00 0.000000000000000000e+00
-1.875000223517444683e+05 -1.875000223517444683e+05 -1.875000223517444683e+05 0.000000000000000000e+00 1.499737232892183602e+04 4.438989393590616965e+04 0.000000000000000000e+00 0.000000000000000000e+00
-1.875000223517444683e+05 -1.875000223517444683e+05 -1.875000223517444683e+05 0.000000000000000000e+00 1.501755595416497817e+04 4.440194152616757492e+04 0.000000000000000000e+00 0.000000000000000000e+00
-1.875000223517444683e+05 -1.875000223517444683e+05 -1.875000223517444683e+05 0.000000000000000000e+00 1.501777947160953045e+04 4.441097163092752453e+04 0.000000000000000000e+00 0.000000000000000000e+00
-1.875000223517444683e+05 -1.875000223517444683e+05 -1.875000223517444683e+05 0.000000000000000000e+00 1.500512838424782603e+04 4.440035455231124797e+04 0.000000000000000000e+00 0.000000000000000000e+00
-1.875000223517444683e+05 -1.875000223517444683e+05 -1.875000223517444683e+05 0.000000000000000000e+00 1.499341607015324553e+04 4.438667528470460093e+04 0.000000000000000000e+00 0.000000000000000000e+00
-1.875000223517444683e+05 -1.875000223517444683e+05 -1.875000223517444683e+05 0.000000000000000000e+00 1.501125276222858156e+04 4.439794056391008053e+04 0.000000000000000000e+00 0.000000000000000000e+00
-1.875000223517444683e+05 -1.875000223517444683e+05 -1.875000223517444683e+05 0.000000000000000000e+00 1.501704186404250504e+04 4.440945171230455890e+04 0.000000000000000000e+00 0.000000000000000000e+00
-1.875000223517444683e+05 -1.875000223517444683e+05 -1.875000223517444683e+05 0.000000000000000000e+00 1.502649665194709996e+04 4.441714071239718760e+04 0.000000000000000000e+00 0.000000000000000000e+00
-1.875000223517444683e+05 -1.875000223517444683e+05 -1.875000223517444683e+05 0.000000000000000000e+00 1.501476198610806387e+04 4.442214750315517449e+04 0.000000000000000000e+00 0.000000000000000000e+00
-1.875000223517444683e+05 -1.875000223517444683e+05 -1.875000223517444683e+05 0.000000000000000000e+00 1.499357253236443285e+04 4.441689484320818156e+04 0.000000000000000000e+00 0.000000000000000000e+00
-1.875000223517444683e+05 -1.875000223517444683e+05 -1.875000223517444683e+05 0.000000000000000000e+00 1.496614694191777198e+04 4.442176752349943854e+04 0.000000000000000000e+00 0.000000000000000000e+00
-1.875000223517444683e+05 -1.875000223517444683e+05 -1.875000223517444683e+05 0.000000000000000000e+00 1.496388941572778458e+04 4.443667613705112308e+04 0.000000000000000000e+00 0.000000000000000000e+00
-1.875000223517444683e+05 -1.875000223517444683e+05 -1.875000223517444683e+05 0.000000000000000000e+00 1.495005368590995022e+04 4.445031070116886258e+04 0.000000000000000000e+00 0.000000000000000000e+00
-1.875000223517444683e+05 -1.875000223517444683e+05 -1.875000223517444683e+05 0.000000000000000000e+00 1.492870776995513188e+04 4.446021252396256023e+04 0.000000000000000000e+00 0.000000000000000000e+00
-1.875000223517444683e+05 -1.875000223517444683e+05 -1.875000223517444683e+05 0.000000000000000000e+00 1.491520731630412592e+04 4.448064201839471207e+04 0.000000000000000000e+00 0.000000000000000000e+00
-1.875000223517444683e+05 -1.875000223517444683e+05 -1.875000223517444683e+05 0.000000000000000000e+00 1.489804117656245035e+04 4.449441069297918148e+04 0.000000000000000000e+00 0.000000000000000000e+00
-1.875000223517444683e+05 -1.875000223517444683e+05 -1.875000223517444683e+05 0.000000000000000000e+00 1.489075450787002046e+04 4.452436203054929501e+04 0.000000000000000000e+00 0.000000000000000000e+00
-1.875000223517444683e+05 -1.875000223517444683e+05 -1.875000223517444683e+05 0.000000000000000000e+00 1.487986920832028591e+04 4.455033475760636065e+04 0.000000000000000000e+00 0.000000000000000000e+00
-1.875000223517444683e+05 -1.875000223517444683e+05 -1.875000223517444683e+05 0.000000000000000000e+00 1.485264478357372172e+04 4.455415690590821760e+04 0.000000000000000000e+00 0.000000000000000000e+00
-1.875000223517444683e+05 -1.875000223517444683e+05 -1.875000223517444683e+05 0.000000000000000000e+00 1.484274296078002044e+04 4.457543576662967098e+04 0.000000000000000000e+00 0.000000000000000000e+00
-1.875000223517444683e+05 -1.875000223517444683e+05 -1.875000223517444683e+05 0.000000000000000000e+00 1.481777606222344366e+04 4.458701397025751794e+04 0.000000000000000000e+00 0.000000000000000000e+00
-1.875000223517444683e+05 -1.875000223517444683e+05 -1.875000223517444683e+05 0.000000000000000000e+00 1.479365852995616660e+04 4.459439004592777201e+04 0.000000000000000000e+00 0.000000000000000000e+00
-1.875000223517444683e+05 -1.875000223517444683e+05 -1.875000223517444683e+05 0.000000000000000000e+00 1.477776643964844334e+04 4.461238320021429536e+04 0.000000000000000000e+00 0.000000000000000000e+00
-1.875000223517444683e+05 -1.875000223517444683e+05 -1.875000223517444683e+05 0.000000000000000000e+00 1.476509300054228333e+04 4.462715770329924999e+04 0.000000000000000000e+00 0.000000000000000000e+00
-1.875000223517444683e+05 -1.875000223517444683e+05 -1.875000223517444683e+05 0.000000000000000000e+00 1.475000557303495225e+04 4.464501674711904343e+04 0.000000000000000000e+00 0.000000000000000000e+00
-1.875000223517444683e+05 -1.875000223517444683e+05 -1.875000223517444683e+05 0.000000000000000000e+00 1.473413583447168457e+04 4.466414984037278191e+04 0.000000000000000000e+00 0.000000000000000000e+00
-1.875000223517444683e+05 -1.875000223517444683e+05 -1.875000223517444683e+05 0.000000000000000000e+00 1.471880253777534381e+04 4.468071248301416927e+04 0.000000000000000000e+00 0.000000000000000000e+00
-1.875000223517444683e+05 -1.875000223517444683e+05 -1.875000223517444683e+05 0.000000000000000000e+00 1.470284339223425377e+04 4.469349768084259995e+04 0.000000000000000000e+00 0.000000000000000000e+00
-1.875000223517444683e+05 -1.875000223517444683e+05 -1.875000223517444683e+05 0.000000000000000000e+00 1.469582494447528734e+04 4.471390482353029802e+04 0.000000000000000000e+00 0.000000000000000000e+00
-1.875000223517444683e+05 -1.875000223517444683e+05 -1.875000223517444683e+05 0.000000000000000000e+00 1.467322733083097228e+04 4.471826341369908187e+04 0.000000000000000000e+00 0.000000000000000000e+00
-1.875000223517444683e+05 -1.875000223517444683e+05 -1.875000223517444683e+05 0.000000000000000000e+00 1.467134978429672628e+04 4.473299321329512895e+04 0.000000000000000000e+00 0.000000000000000000e+00
-1.875000223517444683e+05 -1.875000223517444683e+05 -1.875000223517444683e+05 0.000000000000000000e+00 1.465742464750106956e+04 4.474276092562209669e+04 0.000000000000000000e+00 0.000000000000000000e+00
-1.875000223517444683e+05 -1.875000223517444683e+05 -1.875000223517444683e+05 0.000000000000000000e+00 1.464432652525026060e+04 4.474973466989215376e+04 0.000000000000000000e+00 0.000000000000000000e+00
-1.875000223517444683e+05 -1.875000223517444683e+05 -1.875000223517444683e+05 0.000000000000000000e+00 1.463464821990111159e+04 4.476312336482088722e+04 0.000000000000000000e+00 0.000000000000000000e+00
-1.875000223517444683e+05 -1.875000223517444683e+05 -1.875000223517444683e+05 0.000000000000000000e+00 1.462016428949407236e+04 4.476585027764442930e+04 0.000000000000000000e+00 0.000000000000000000e+00
-1.875000223517444683e+05 -1.875000223517444683e+05 -1.875000223517444683e+05 0.000000000000000000e+00 1.461310113824619657e+04 4.477510389984893118e+04 0.000000000000000000e+00 0.000000000000000000e+00
-1.875000223517444683e+05 -1.875000223517444683e+05 -1.875000223517444683e+05 0.000000000000000000e+00 1.460427219918634910e+04 4.478739735929934977e+04 0.000000000000000000e+00 0.000000000000000000e+00
-1.875000223517444683e+05 -1.875000223517444683e+05 -1.875000223517444683e+05 0.000000000000000000e+00 1.459354336184780186e+04 4.478978899595606345e+04 0.000000000000000000e+00 0.000000000000000000e+00
-1.875000223517444683e+05 -1.875000223517444683e+05 -1.875000223517444683e+05 0.000000000000000000e+00 1.459231401590276073e+04 4.479879674897155201e+04 0.000000000000000000e+00 0.000000000000000000e+00
-1.875000223517444683e+05 -1.875000223517444683e+05 -1.875000223517444683e+05 0.000000000000000000e+00 1.458408857394320694e+04 4.480471996125220903e+04 0.000000000000000000e+00 0.000000000000000000e+00
-1.875000223517444683e+05 -1.875000223517444683e+05 -1.875000223517444683e+05 0.000000000000000000e+00 1.456388259695560919e+04 4.479805914140452660e+04 0.000000000000000000e+00 0.000000000000000000e+00
-1.875000223517444683e+05 -1.875000223517444683e+05 -1.875000223517444683e+05 0.000000000000000000e+00 1.456681067547925522e+04 4.481006202817703161e+04 0.000000000000000000e+00 0.000000000000000000e+00
-1.875000223517444683e+05 -1.875000223517444683e+05 -1.875000223517444683e+05 0.000000000000000000e+00 1.456576014348985518e+04 4.482175199052715470e+04 0.000000000000000000e+00 0.000000000000000000e+00
-1.875000223517444683e+05 -1.875000223517444683e+05 -1.875000223517444683e+05 0.000000000000000000e+00 1.455585832069615390e+04 4.481596288871322758e+04 0.000000000000000000e+00 0.000000000000000000e+00
-1.875000223517444683e+05 -1.875000223517444683e+05 -1.875000223517444683e+05 0.000000000000000000e+00 1.455424899509537317e+04 4.482291428123883088e+04 0.000000000000000000e+00 0.000000000000000000e+00
-1.875000223517444683e+05 -1.875000223517444683e+05 -1.875000223517444683e+05 0.000000000000000000e+00 1.455346668403943659e+04 4.483453718835559266e+04 0.000000000000000000e+00 0.000000000000000000e+00
-1.875000223517444683e+05 -1.875000223517444683e+05 -1.875000223517444683e+05 0.000000000000000000e+00 1.455219263460548427e+04 4.483835933665744960e+04 0.000000000000000000e+00 0.000000000000000000e+00
-1.875000223517444683e+05 -1.875000223517444683e+05 -1.875000223517444683e+05 0.000000000000000000e+00 1.454208964611168631e+04 4.483442542963331653e+04 0.000000000000000000e+00 0.000000000000000000e+00
-1.875000223517444683e+05 -1.875000223517444683e+05 -1.875000223517444683e+05 0.000000000000000000e+00 1.454110616935565122e+04 4.483739821164587192e+04 0.000000000000000000e+00 0.000000000000000000e+00
-1.875000223517444683e+05 -1.875000223517444683e+05 -1.875000223517444683e+05 0.000000000000000000e+00 1.453375244542985638e+04 4.483918635120229737e+04 0.000000000000000000e+00 0.000000000000000000e+00
-1.875000223517444683e+05 -1.875000223517444683e+05 -1.875000223517444683e+05 0.000000000000000000e+00 1.452465528543654546e+04 4.483925340643565869e+04 0.000000000000000000e+00 0.000000000000000000e+00
-1.875000223517444683e+05 -1.875000223517444683e+05 -1.875000223517444683e+05 0.000000000000000000e+00 1.452101195109033142e+04 4.483277140054362098e+04 0.000000000000000000e+00 0.000000000000000000e+00
-1.875000223517444683e+05 -1.875000223517444683e+05 -1.875000223517444683e+05 0.000000000000000000e+00 1.452601874184832013e+04 4.484414843847136945e+04 0.000000000000000000e+00 0.000000000000000000e+00
-1.875000223517444683e+05 -1.875000223517444683e+05 -1.875000223517444683e+05 0.000000000000000000e+00 1.453701580012033082e+04 4.485802887177811499e+04 0.000000000000000000e+00 0.000000000000000000e+00
-1.875000223517444683e+05 -1.875000223517444683e+05 -1.875000223517444683e+05 0.000000000000000000e+00 1.451942497723400447e+04 4.484115330471436027e+04 0.000000000000000000e+00 0.000000000000000000e+00
-1.875000223517444683e+05 -1.875000223517444683e+05 -1.875000223517444683e+05 0.000000000000000000e+00 1.451752507895530289e+04 4.484271792682623345e+04 0.000000000000000000e+00 0.000000000000000000e+00
-1.875000223517444683e+05 -1.875000223517444683e+05 -1.875000223517444683e+05 0.000000000000000000e+00 1.451924616327836156e+04 4.485199390077518183e+04 0.000000000000000000e+00 0.000000000000000000e+00
-1.875000223517444683e+05 -1.875000223517444683e+05 -1.875000223517444683e+05 0.000000000000000000e+00 1.451506638706521881e+04 4.484835056642896961e+04 0.000000000000000000e+00 0.000000000000000000e+00
-1.875000223517444683e+05 -1.875000223517444683e+05 -1.875000223517444683e+05 0.000000000000000000e+00 1.452157074470171392e+04 4.485639719443288050e+04 0.000000000000000000e+00 0.000000000000000000e+00
-1.875000223517444683e+05 -1.875000223517444683e+05 -1.875000223517444683e+05 0.000000000000000000e+00 1.452326947728031701e+04 4.486332623521402274e+04 0.000000000000000000e+00 0.000000000000000000e+00
-1.875000223517444683e+05 -1.875000223517444683e+05 -1.875000223517444683e+05 0.000000000000000000e+00 1.452152604121280274e+04 4.486187337182443298e+04 0.000000000000000000e+00 0.000000000000000000e+00
-1.875000223517444683e+05 -1.875000223517444683e+05 -1.875000223517444683e+05 0.000000000000000000e+00 1.452083313713468851e+04 4.486650018292667664e+04 0.000000000000000000e+00 0.000000000000000000e+00
-1.875000223517444683e+05 -1.875000223517444683e+05 -1.875000223517444683e+05 0.000000000000000000e+00 1.450813734628407474e+04 4.486453322941461374e+04 0.000000000000000000e+00 0.000000000000000000e+00
-1.875000223517444683e+05 -1.875000223517444683e+05 -1.875000223517444683e+05 0.000000000000000000e+00 1.451142305271900477e+04 4.486048756366820453e+04 0.000000000000000000e+00 0.000000000000000000e+00
-1.875000223517444683e+05 -1.875000223517444683e+05 -1.875000223517444683e+05 0.000000000000000000e+00 1.452295655285794237e+04 4.487528441849761293e+04 0.000000000000000000e+00 0.000000000000000000e+00
-1.875000223517444683e+05 -1.875000223517444683e+05 -1.875000223517444683e+05 0.000000000000000000e+00 1.452157074470171392e+04 4.487003175855062000e+04 0.000000000000000000e+00 0.000000000000000000e+00
-1.875000223517444683e+05 -1.875000223517444683e+05 -1.875000223517444683e+05 0.000000000000000000e+00 1.452306831158021851e+04 4.487099288356219768e+04 0.000000000000000000e+00 0.000000000000000000e+00
-1.875000223517444683e+05 -1.875000223517444683e+05 -1.875000223517444683e+05 0.000000000000000000e+00 1.450646096544992542e+04 4.485856531364504917e+04 0.000000000000000000e+00 0.000000000000000000e+00
-1.875000223517444683e+05 -1.875000223517444683e+05 -1.875000223517444683e+05 0.000000000000000000e+00 1.451198184633038727e+04 4.486468969162579742e+04 0.000000000000000000e+00 0.000000000000000000e+00
-1.875000223517444683e+05 -1.875000223517444683e+05 -1.875000223517444683e+05 0.000000000000000000e+00 1.452449882322535814e+04 4.487333981673000380e+04 0.000000000000000000e+00 0.000000000000000000e+00
-1.875000223517444683e+05 -1.875000223517444683e+05 -1.875000223517444683e+05 0.000000000000000000e+00 1.451584869812115539e+04 4.486880241260557523e+04 0.000000000000000000e+00 0.000000000000000000e+00
-1.875000223517444683e+05 -1.875000223517444683e+05 -1.875000223517444683e+05 0.000000000000000000e+00 1.451853090745579175e+04 4.487635730223146675e+04 0.000000000000000000e+00 0.000000000000000000e+00
-1.875000223517444683e+05 -1.875000223517444683e+05 -1.875000223517444683e+05 0.000000000000000000e+00 1.451296532308642054e+04 4.486802010154964228e+04 0.000000000000000000e+00 0.000000000000000000e+00
-1.875000223517444683e+05 -1.875000223517444683e+05 -1.875000223517444683e+05 0.000000000000000000e+00 1.451359117193116981e+04 4.486913768877240364e+04 0.000000000000000000e+00 0.000000000000000000e+00
-1.875000223517444683e+05 -1.875000223517444683e+05 -1.875000223517444683e+05 0.000000000000000000e+00 1.451099836957435400e+04 4.486893652307230514e+04 0.000000000000000000e+00 0.000000000000000000e+00
-1.875000223517444683e+05 -1.875000223517444683e+05 -1.875000223517444683e+05 0.000000000000000000e+00 1.451207125330820782e+04 4.486247686892472120e+04 0.000000000000000000e+00 0.000000000000000000e+00
-1.875000223517444683e+05 -1.875000223517444683e+05 -1.875000223517444683e+05 0.000000000000000000e+00 1.451334530274216013e+04 4.486093459855730907e+04 0.000000000000000000e+00 0.000000000000000000e+00
-1.875000223517444683e+05 -1.875000223517444683e+05 -1.875000223517444683e+05 0.000000000000000000e+00 1.451111012829663014e+04 4.486147104042423598e+04 0.000000000000000000e+00 0.000000000000000000e+00
-1.875000223517444683e+05 -1.875000223517444683e+05 -1.875000223517444683e+05 0.000000000000000000e+00 1.451531225625422849e+04 4.486059932239048067e+04 0.000000000000000000e+00 0.000000000000000000e+00
-1.875000223517444683e+05 -1.875000223517444683e+05 -1.875000223517444683e+05 0.000000000000000000e+00 1.451678747138827748e+04 4.486674605211568996e+04 0.000000000000000000e+00 0.000000000000000000e+00
-1.875000223517444683e+05 -1.875000223517444683e+05 -1.875000223517444683e+05 0.000000000000000000e+00 1.452275538715784569e+04 4.487675963363166375e+04 0.000000000000000000e+00 0.000000000000000000e+00
-1.875000223517444683e+05 -1.875000223517444683e+05 -1.875000223517444683e+05 0.000000000000000000e+00 1.452078843364577733e+04 4.486750601142716914e+04 0.000000000000000000e+00 0.000000000000000000e+00
-1.875000223517444683e+05 -1.875000223517444683e+05 -1.875000223517444683e+05 0.000000000000000000e+00 1.452715868081554072e+04 4.486679075560459751e+04 0.000000000000000000e+00 0.000000000000000000e+00
-1.875000223517444683e+05 -1.875000223517444683e+05 -1.875000223517444683e+05 0.000000000000000000e+00 1.453319365181847388e+04 4.487141756670684845e+04 0.000000000000000000e+00 0.000000000000000000e+00
-1.875000223517444683e+05 -1.875000223517444683e+05 -1.875000223517444683e+05 0.000000000000000000e+00 1.453422183206341833e+04 4.487231163648505753e+04 0.000000000000000000e+00 0.000000000000000000e+00
-1.875000223517444683e+05 -1.875000223517444683e+05 -1.875000223517444683e+05 0.000000000000000000e+00 1.452262127669111396e+04 4.486439911894788384e+04 0.000000000000000000e+00 0.000000000000000000e+00
-1.875000223517444683e+05 -1.875000223517444683e+05 -1.875000223517444683e+05 0.000000000000000000e+00 1.452496820985892009e+04 4.486565081663737510e+04 0.000000000000000000e+00 0.000000000000000000e+00
-1.875000223517444683e+05 -1.875000223517444683e+05 -1.875000223517444683e+05 0.000000000000000000e+00 1.452572816917040109e+04 4.486323682823620766e+04 0.000000000000000000e+00 0.000000000000000000e+00
-1.875000223517444683e+05 -1.875000223517444683e+05 -1.875000223517444683e+05 0.000000000000000000e+00 1.452899152386087553e+04 4.485914645900088362e+04 0.000000000000000000e+00 0.000000000000000000e+00
-1.875000223517444683e+05 -1.875000223517444683e+05 -1.875000223517444683e+05 0.000000000000000000e+00 1.453209841634016266e+04 4.486784128759399755e+04 0.000000000000000000e+00 0.000000000000000000e+00
-1.875000223517444683e+05 -1.875000223517444683e+05 -1.875000223517444683e+05 0.000000000000000000e+00 1.453158432621769134e+04 4.487059055216200068e+04 0.000000000000000000e+00 0.000000000000000000e+00
-1.875000223517444683e+05 -1.875000223517444683e+05 -1.875000223517444683e+05 0.000000000000000000e+00 1.452718103255999631e+04 4.486761777014944528e+04 0.000000000000000000e+00 0.000000000000000000e+00
-1.875000223517444683e+05 -1.875000223517444683e+05 -1.875000223517444683e+05 0.000000000000000000e+00 1.452836567501612626e+04 4.486587433408193465e+04 0.000000000000000000e+00 0.000000000000000000e+00
-1.875000223517444683e+05 -1.875000223517444683e+05 -1.875000223517444683e+05 0.000000000000000000e+00 1.453223252680689438e+04 4.486728249398261687e+04 0.000000000000000000e+00 0.000000000000000000e+00
-1.875000223517444683e+05 -1.875000223517444683e+05 -1.875000223517444683e+05 0.000000000000000000e+00 1.454001093387734181e+04 4.487090347658437531e+04 0.000000000000000000e+00 0.000000000000000000e+00
-1.875000223517444683e+05 -1.875000223517444683e+05 -1.875000223517444683e+05 0.000000000000000000e+00 1.452807510233820722e+04 4.486328153172511520e+04 0.000000000000000000e+00 0.000000000000000000e+00
-1.875000223517444683e+05 -1.875000223517444683e+05 -1.875000223517444683e+05 0.000000000000000000e+00 1.452651048022633586e+04 4.485715715374435968e+04 0.000000000000000000e+00 0.000000000000000000e+00
